File Version;BWSpec4.03_33_C
Date,2026-04-16 14:42:39
title,ZMYE
model,BRC1K
c code,ZMYE
operator,
port1,0
baud1,3
pixel_start,0
pixel_end,999
step,1
units,1
bkcolor,16777215
show_mode,3
data_mode,0
pixel_mode,0
intigration times(ms),10
average number,5
time_multiply,1
spectrometer_type ,71
yaxis,1
yaxis_min,-494
yaxis_max,65535
xaxis,0
xaxis_min,0
xaxis_max,999
irrands_DispWLMin,100
irrands_DispWLMax,1000
yaxis_min_6,0
yaxis_max_6,0
irradiance_unit,0
Color_Data_Flag,0
Color_StartWL,400
Color_EndWL,700
Color_IncWL,10
power_unit_index,3
photometric_index,0
Illuminant_index,3
observer_index,0
lab_l,0
lab_a,0
lab_b,0
radiometric_flag,0
coefs_a0,348.690626413622
coefs_a1,0.577242842360403
coefs_a2,-0.000102397725884922
coefs_a3,-1.43696470178894E-09
coefs_b0,-604.699216452593
coefs_b1,1.81821494738794
coefs_b2,-0.000542372268672448
coefs_b3,8.54199818797248E-07
coefs_r0,1
coefs_r1,0
coefs_r2,0
coefs_r3,0
coefs_j0,1
coefs_j1,0
coefs_j2,0
coefs_j3,0
enable_coefs_r,0
all_data_save,1
select_option,-1
interval_time,10
pixel_num,1000
sel_pixel_start,0
sel_pixel_end,968
sel_pixel_delta,1
dark_compensate,0
dark_compensate_value_1,0
dark_compensate_value_2,0
dark_compensate_value_3,0
monitor pixel_0,0
monitor pixel_1,0
monitor pixel_2,0
monitor pixel_3,0
monitor pixel_4,0
monitor pixel_5,0
vertical_select_flag,0
vertical_line3,0
vertical_line4,0
vertical_line3_wv,1
vertical_line4_wv,1
vertical_line_flag,0
vertical_line_ratio,0
laser_wavelength,0
laser_powerlevel,0
overlay_js,0
Relative Intensity Correction Flag,0
Pixel,Wavelength,Wavenumber,Raman Shift,Dark,Reference,Raw data #1,Dark Subtracted #1,%TR #1,Absorbance #1,Irradiance (lumen) #1,
0,348.69,28678.72,-28678.72,1440.2000,65535.0000,1572.4000,132.2000,0.0000,0.0000,0.0000,
1,349.27,28631.33,-28631.33,1431.2000,65535.0000,1611.2000,180.0000,0.0000,0.0000,0.0000,
2,349.84,28584.11,-28584.11,1437.0000,65535.0000,1575.0000,138.0000,0.0000,0.0000,0.0000,
3,350.42,28537.07,-28537.07,1453.4000,65535.0000,1597.4000,144.0000,0.0000,0.0000,0.0000,
4,351.00,28490.19,-28490.19,1450.0000,65535.0000,1603.2000,153.2000,0.0000,0.0000,0.0000,
5,351.57,28443.49,-28443.49,1437.8000,65535.0000,1584.6000,146.8000,0.0000,0.0000,0.0000,
6,352.15,28396.96,-28396.96,1470.8000,65535.0000,1592.6000,121.8000,0.0000,0.0000,0.0000,
7,352.73,28350.59,-28350.59,1470.8000,65535.0000,1585.0000,114.2000,0.0000,0.0000,0.0000,
8,353.30,28304.40,-28304.40,1462.6000,65535.0000,1586.6000,124.0000,0.0000,0.0000,0.0000,
9,353.88,28258.36,-28258.36,1478.2000,65535.0000,1594.2000,116.0000,0.0000,0.0000,0.0000,
10,354.45,28212.50,-28212.50,1454.0000,65535.0000,1572.0000,118.0000,0.0000,0.0000,0.0000,
11,355.03,28166.80,-28166.80,1440.6000,65535.0000,1576.8000,136.2000,0.0000,0.0000,0.0000,
12,355.60,28121.26,-28121.26,1447.0000,65535.0000,1586.8000,139.8000,0.0000,0.0000,0.0000,
13,356.18,28075.89,-28075.89,1447.4000,65535.0000,1606.8000,159.4000,0.0000,0.0000,0.0000,
14,356.75,28030.68,-28030.68,1449.6000,65535.0000,1572.2000,122.6000,0.0000,0.0000,0.0000,
15,357.33,27985.63,-27985.63,1436.6000,65535.0000,1590.2000,153.6000,0.0000,0.0000,0.0000,
16,357.90,27940.74,-27940.74,1436.2000,65535.0000,1581.8000,145.6000,0.0000,0.0000,0.0000,
17,358.47,27896.01,-27896.01,1466.0000,65535.0000,1627.4000,161.4000,0.0000,0.0000,0.0000,
18,359.05,27851.44,-27851.44,1454.4000,65535.0000,1576.6000,122.2000,0.0000,0.0000,0.0000,
19,359.62,27807.03,-27807.03,1445.2000,65535.0000,1545.6000,100.4000,0.0000,0.0000,0.0000,
20,360.19,27762.78,-27762.78,1451.4000,65535.0000,1574.4000,123.0000,0.0000,0.0000,0.0000,
21,360.77,27718.68,-27718.68,1447.8000,65535.0000,1580.6000,132.8000,0.0000,0.0000,0.0000,
22,361.34,27674.74,-27674.74,1430.6000,65535.0000,1587.2000,156.6000,0.0000,0.0000,0.0000,
23,361.91,27630.95,-27630.95,1471.0000,65535.0000,1567.6000,96.6000,0.0000,0.0000,0.0000,
24,362.49,27587.31,-27587.31,1462.6000,65535.0000,1598.6000,136.0000,0.0000,0.0000,0.0000,
25,363.06,27543.83,-27543.83,1448.0000,65535.0000,1577.2000,129.2000,0.0000,0.0000,0.0000,
26,363.63,27500.50,-27500.50,1435.2000,65535.0000,1621.6000,186.4000,0.0000,0.0000,0.0000,
27,364.20,27457.33,-27457.33,1450.0000,65535.0000,1592.2000,142.2000,0.0000,0.0000,0.0000,
28,364.77,27414.30,-27414.30,1457.0000,65535.0000,1596.6000,139.6000,0.0000,0.0000,0.0000,
29,365.34,27371.42,-27371.42,1464.4000,65535.0000,1576.0000,111.6000,0.0000,0.0000,0.0000,
30,365.92,27328.70,-27328.70,1429.0000,65535.0000,1594.2000,165.2000,0.0000,0.0000,0.0000,
31,366.49,27286.12,-27286.12,1429.8000,65535.0000,1595.2000,165.4000,0.0000,0.0000,0.0000,
32,367.06,27243.69,-27243.69,1442.2000,65535.0000,1598.0000,155.8000,0.0000,0.0000,0.0000,
33,367.63,27201.40,-27201.40,1443.2000,65535.0000,1592.2000,149.0000,0.0000,0.0000,0.0000,
34,368.20,27159.27,-27159.27,1441.6000,65535.0000,1585.6000,144.0000,0.0000,0.0000,0.0000,
35,368.77,27117.27,-27117.27,1442.4000,65535.0000,1577.4000,135.0000,0.0000,0.0000,0.0000,
36,369.34,27075.43,-27075.43,1435.8000,65535.0000,1593.8000,158.0000,0.0000,0.0000,0.0000,
37,369.91,27033.72,-27033.72,1477.0000,65535.0000,1615.6000,138.6000,0.0000,0.0000,0.0000,
38,370.48,26992.16,-26992.16,1447.8000,65535.0000,1614.0000,166.2000,0.0000,0.0000,0.0000,
39,371.05,26950.74,-26950.74,1446.2000,65535.0000,1597.2000,151.0000,0.0000,0.0000,0.0000,
40,371.62,26909.47,-26909.47,1466.4000,65535.0000,1607.0000,140.6000,0.0000,0.0000,0.0000,
41,372.19,26868.33,-26868.33,1452.8000,65535.0000,1616.2000,163.4000,0.0000,0.0000,0.0000,
42,372.75,26827.34,-26827.34,1454.2000,65535.0000,1583.6000,129.4000,0.0000,0.0000,0.0000,
43,373.32,26786.48,-26786.48,1466.4000,65535.0000,1612.2000,145.8000,0.0000,0.0000,0.0000,
44,373.89,26745.77,-26745.77,1453.6000,65535.0000,1645.0000,191.4000,0.0000,0.0000,0.0000,
45,374.46,26705.19,-26705.19,1448.6000,65535.0000,1635.8000,187.2000,0.0000,0.0000,0.0000,
46,375.03,26664.75,-26664.75,1454.6000,65535.0000,1611.0000,156.4000,0.0000,0.0000,0.0000,
47,375.59,26624.44,-26624.44,1447.2000,65535.0000,1644.0000,196.8000,0.0000,0.0000,0.0000,
48,376.16,26584.28,-26584.28,1423.6000,65535.0000,1635.4000,211.8000,0.0000,0.0000,0.0000,
49,376.73,26544.24,-26544.24,1440.8000,65535.0000,1655.2000,214.4000,0.0000,0.0000,0.0000,
50,377.30,26504.35,-26504.35,1421.8000,65535.0000,1633.2000,211.4000,0.0000,0.0000,0.0000,
51,377.86,26464.58,-26464.58,1456.6000,65535.0000,1619.0000,162.4000,0.0000,0.0000,0.0000,
52,378.43,26424.95,-26424.95,1443.4000,65535.0000,1647.4000,204.0000,0.0000,0.0000,0.0000,
53,379.00,26385.46,-26385.46,1449.4000,65535.0000,1670.0000,220.6000,0.0000,0.0000,0.0000,
54,379.56,26346.09,-26346.09,1444.6000,65535.0000,1686.2000,241.6000,0.0000,0.0000,0.0000,
55,380.13,26306.86,-26306.86,1418.0000,65535.0000,1655.8000,237.8000,0.0000,0.0000,0.0000,
56,380.69,26267.76,-26267.76,1469.0000,65535.0000,1666.4000,197.4000,0.0000,0.0000,0.0000,
57,381.26,26228.78,-26228.78,1428.6000,65535.0000,1693.8000,265.2000,0.0000,0.0000,0.0000,
58,381.83,26189.94,-26189.94,1462.0000,65535.0000,1693.4000,231.4000,0.0000,0.0000,0.0000,
59,382.39,26151.23,-26151.23,1459.8000,65535.0000,1707.0000,247.2000,0.0000,0.0000,0.0000,
60,382.96,26112.64,-26112.64,1449.6000,65535.0000,1664.8000,215.2000,0.0000,0.0000,0.0000,
61,383.52,26074.19,-26074.19,1443.0000,65535.0000,1695.2000,252.2000,0.0000,0.0000,0.0000,
62,384.09,26035.85,-26035.85,1441.6000,65535.0000,1704.6000,263.0000,0.0000,0.0000,0.0000,
63,384.65,25997.65,-25997.65,1459.6000,65535.0000,1733.8000,274.2000,0.0000,0.0000,0.0000,
64,385.21,25959.57,-25959.57,1420.2000,65535.0000,1727.0000,306.8000,0.0000,0.0000,0.0000,
65,385.78,25921.62,-25921.62,1440.8000,65535.0000,1740.2000,299.4000,0.0000,0.0000,0.0000,
66,386.34,25883.79,-25883.79,1433.0000,65535.0000,1743.0000,310.0000,0.0000,0.0000,0.0000,
67,386.91,25846.08,-25846.08,1436.4000,65535.0000,1720.4000,284.0000,0.0000,0.0000,0.0000,
68,387.47,25808.50,-25808.50,1455.4000,65535.0000,1746.8000,291.4000,0.0000,0.0000,0.0000,
69,388.03,25771.04,-25771.04,1444.6000,65535.0000,1756.0000,311.4000,0.0000,0.0000,0.0000,
70,388.60,25733.71,-25733.71,1465.4000,65535.0000,1777.8000,312.4000,0.0000,0.0000,0.0000,
71,389.16,25696.49,-25696.49,1451.2000,65535.0000,1795.4000,344.2000,0.0000,0.0000,0.0000,
72,389.72,25659.40,-25659.40,1448.6000,65535.0000,1759.4000,310.8000,0.0000,0.0000,0.0000,
73,390.28,25622.43,-25622.43,1437.0000,65535.0000,1773.6000,336.6000,0.0000,0.0000,0.0000,
74,390.85,25585.57,-25585.57,1443.6000,65535.0000,1790.2000,346.6000,0.0000,0.0000,0.0000,
75,391.41,25548.84,-25548.84,1436.2000,65535.0000,1848.6000,412.4000,0.0000,0.0000,0.0000,
76,391.97,25512.22,-25512.22,1435.6000,65535.0000,1828.2000,392.6000,0.0000,0.0000,0.0000,
77,392.53,25475.72,-25475.72,1449.4000,65535.0000,1837.4000,388.0000,0.0000,0.0000,0.0000,
78,393.09,25439.34,-25439.34,1440.6000,65535.0000,1848.0000,407.4000,0.0000,0.0000,0.0000,
79,393.65,25403.08,-25403.08,1443.2000,65535.0000,1841.8000,398.6000,0.0000,0.0000,0.0000,
80,394.21,25366.93,-25366.93,1445.4000,65535.0000,1836.0000,390.6000,0.0000,0.0000,0.0000,
81,394.77,25330.90,-25330.90,1456.2000,65535.0000,1867.8000,411.6000,0.0000,0.0000,0.0000,
82,395.34,25294.99,-25294.99,1431.2000,65535.0000,1869.6000,438.4000,0.0000,0.0000,0.0000,
83,395.90,25259.19,-25259.19,1421.8000,65535.0000,1854.0000,432.2000,0.0000,0.0000,0.0000,
84,396.46,25223.50,-25223.50,1449.4000,65535.0000,1850.4000,401.0000,0.0000,0.0000,0.0000,
85,397.02,25187.93,-25187.93,1448.8000,65535.0000,1890.0000,441.2000,0.0000,0.0000,0.0000,
86,397.58,25152.47,-25152.47,1472.6000,65535.0000,1907.4000,434.8000,0.0000,0.0000,0.0000,
87,398.13,25117.12,-25117.12,1439.8000,65535.0000,1885.4000,445.6000,0.0000,0.0000,0.0000,
88,398.69,25081.89,-25081.89,1439.0000,65535.0000,1913.6000,474.6000,0.0000,0.0000,0.0000,
89,399.25,25046.77,-25046.77,1457.4000,65535.0000,1909.8000,452.4000,0.0000,0.0000,0.0000,
90,399.81,25011.75,-25011.75,1462.2000,65535.0000,1941.6000,479.4000,0.0000,0.0000,0.0000,
91,400.37,24976.85,-24976.85,1464.8000,65535.0000,1959.2000,494.4000,0.0000,0.0000,0.0000,
92,400.93,24942.06,-24942.06,1442.4000,65535.0000,1986.0000,543.6000,0.0000,0.0000,0.0000,
93,401.49,24907.38,-24907.38,1466.4000,65535.0000,1988.4000,522.0000,0.0000,0.0000,0.0000,
94,402.05,24872.81,-24872.81,1473.8000,65535.0000,1969.6000,495.8000,0.0000,0.0000,0.0000,
95,402.60,24838.34,-24838.34,1456.4000,65535.0000,1965.2000,508.8000,0.0000,0.0000,0.0000,
96,403.16,24803.99,-24803.99,1444.8000,65535.0000,1983.6000,538.8000,0.0000,0.0000,0.0000,
97,403.72,24769.74,-24769.74,1419.2000,65535.0000,2047.2000,628.0000,0.0000,0.0000,0.0000,
98,404.28,24735.60,-24735.60,1450.6000,65535.0000,1999.2000,548.6000,0.0000,0.0000,0.0000,
99,404.83,24701.56,-24701.56,1454.6000,65535.0000,2061.0000,606.4000,0.0000,0.0000,0.0000,
100,405.39,24667.63,-24667.63,1432.4000,65535.0000,2011.0000,578.6000,0.0000,0.0000,0.0000,
101,405.95,24633.81,-24633.81,1445.6000,65535.0000,2062.6000,617.0000,0.0000,0.0000,0.0000,
102,406.50,24600.09,-24600.09,1437.8000,65535.0000,2084.8000,647.0000,0.0000,0.0000,0.0000,
103,407.06,24566.48,-24566.48,1445.2000,65535.0000,2074.6000,629.4000,0.0000,0.0000,0.0000,
104,407.61,24532.97,-24532.97,1447.0000,65535.0000,2109.2000,662.2000,0.0000,0.0000,0.0000,
105,408.17,24499.56,-24499.56,1435.2000,65535.0000,2088.0000,652.8000,0.0000,0.0000,0.0000,
106,408.73,24466.26,-24466.26,1442.4000,65535.0000,2104.6000,662.2000,0.0000,0.0000,0.0000,
107,409.28,24433.06,-24433.06,1459.0000,65535.0000,2148.2000,689.2000,0.0000,0.0000,0.0000,
108,409.84,24399.96,-24399.96,1463.6000,65535.0000,2142.4000,678.8000,0.0000,0.0000,0.0000,
109,410.39,24366.97,-24366.97,1447.0000,65535.0000,2182.2000,735.2000,0.0000,0.0000,0.0000,
110,410.95,24334.07,-24334.07,1426.4000,65535.0000,2166.2000,739.8000,0.0000,0.0000,0.0000,
111,411.50,24301.28,-24301.28,1436.2000,65535.0000,2187.8000,751.6000,0.0000,0.0000,0.0000,
112,412.06,24268.59,-24268.59,1456.0000,65535.0000,2224.2000,768.2000,0.0000,0.0000,0.0000,
113,412.61,24235.99,-24235.99,1434.2000,65535.0000,2257.6000,823.4000,0.0000,0.0000,0.0000,
114,413.16,24203.50,-24203.50,1463.6000,65535.0000,2274.4000,810.8000,0.0000,0.0000,0.0000,
115,413.72,24171.10,-24171.10,1468.6000,65535.0000,2297.0000,828.4000,0.0000,0.0000,0.0000,
116,414.27,24138.81,-24138.81,1459.4000,65535.0000,2281.6000,822.2000,0.0000,0.0000,0.0000,
117,414.82,24106.61,-24106.61,1429.6000,65535.0000,2266.4000,836.8000,0.0000,0.0000,0.0000,
118,415.38,24074.51,-24074.51,1472.0000,65535.0000,2314.0000,842.0000,0.0000,0.0000,0.0000,
119,415.93,24042.50,-24042.50,1445.8000,65535.0000,2269.0000,823.2000,0.0000,0.0000,0.0000,
120,416.48,24010.60,-24010.60,1443.2000,65535.0000,2338.6000,895.4000,0.0000,0.0000,0.0000,
121,417.04,23978.79,-23978.79,1453.0000,65535.0000,2332.6000,879.6000,0.0000,0.0000,0.0000,
122,417.59,23947.07,-23947.07,1446.0000,65535.0000,2338.2000,892.2000,0.0000,0.0000,0.0000,
123,418.14,23915.46,-23915.46,1444.0000,65535.0000,2352.2000,908.2000,0.0000,0.0000,0.0000,
124,418.69,23883.93,-23883.93,1452.8000,65535.0000,2350.4000,897.6000,0.0000,0.0000,0.0000,
125,419.24,23852.50,-23852.50,1437.0000,65535.0000,2402.0000,965.0000,0.0000,0.0000,0.0000,
126,419.79,23821.17,-23821.17,1454.0000,65535.0000,2436.2000,982.2000,0.0000,0.0000,0.0000,
127,420.35,23789.93,-23789.93,1449.2000,65535.0000,2421.2000,972.0000,0.0000,0.0000,0.0000,
128,420.90,23758.78,-23758.78,1434.4000,65535.0000,2414.0000,979.6000,0.0000,0.0000,0.0000,
129,421.45,23727.73,-23727.73,1459.8000,65535.0000,2449.0000,989.2000,0.0000,0.0000,0.0000,
130,422.00,23696.77,-23696.77,1461.2000,65535.0000,2470.8000,1009.6000,0.0000,0.0000,0.0000,
131,422.55,23665.90,-23665.90,1436.4000,65535.0000,2479.0000,1042.6000,0.0000,0.0000,0.0000,
132,423.10,23635.12,-23635.12,1450.0000,65535.0000,2522.8000,1072.8000,0.0000,0.0000,0.0000,
133,423.65,23604.43,-23604.43,1447.4000,65535.0000,2521.0000,1073.6000,0.0000,0.0000,0.0000,
134,424.20,23573.84,-23573.84,1435.2000,65535.0000,2530.2000,1095.0000,0.0000,0.0000,0.0000,
135,424.75,23543.33,-23543.33,1432.4000,65535.0000,2586.2000,1153.8000,0.0000,0.0000,0.0000,
136,425.30,23512.92,-23512.92,1479.6000,65535.0000,2592.4000,1112.8000,0.0000,0.0000,0.0000,
137,425.85,23482.60,-23482.60,1450.8000,65535.0000,2609.8000,1159.0000,0.0000,0.0000,0.0000,
138,426.40,23452.36,-23452.36,1455.8000,65535.0000,2648.6000,1192.8000,0.0000,0.0000,0.0000,
139,426.95,23422.22,-23422.22,1436.6000,65535.0000,2692.2000,1255.6000,0.0000,0.0000,0.0000,
140,427.49,23392.16,-23392.16,1435.8000,65535.0000,2694.6000,1258.8000,0.0000,0.0000,0.0000,
141,428.04,23362.19,-23362.19,1454.0000,65535.0000,2728.8000,1274.8000,0.0000,0.0000,0.0000,
142,428.59,23332.31,-23332.31,1418.8000,65535.0000,2772.4000,1353.6000,0.0000,0.0000,0.0000,
143,429.14,23302.52,-23302.52,1459.4000,65535.0000,2785.6000,1326.2000,0.0000,0.0000,0.0000,
144,429.69,23272.81,-23272.81,1451.0000,65535.0000,2807.4000,1356.4000,0.0000,0.0000,0.0000,
145,430.23,23243.19,-23243.19,1458.0000,65535.0000,2827.8000,1369.8000,0.0000,0.0000,0.0000,
146,430.78,23213.66,-23213.66,1450.2000,65535.0000,2900.8000,1450.6000,0.0000,0.0000,0.0000,
147,431.33,23184.21,-23184.21,1427.8000,65535.0000,2870.0000,1442.2000,0.0000,0.0000,0.0000,
148,431.87,23154.85,-23154.85,1435.2000,65535.0000,2869.2000,1434.0000,0.0000,0.0000,0.0000,
149,432.42,23125.57,-23125.57,1423.8000,65535.0000,2948.8000,1525.0000,0.0000,0.0000,0.0000,
150,432.97,23096.38,-23096.38,1424.8000,65535.0000,2990.8000,1566.0000,0.0000,0.0000,0.0000,
151,433.51,23067.28,-23067.28,1449.4000,65535.0000,2995.0000,1545.6000,0.0000,0.0000,0.0000,
152,434.06,23038.25,-23038.25,1462.6000,65535.0000,2967.0000,1504.4000,0.0000,0.0000,0.0000,
153,434.61,23009.31,-23009.31,1445.4000,65535.0000,3016.8000,1571.4000,0.0000,0.0000,0.0000,
154,435.15,22980.46,-22980.46,1462.8000,65535.0000,3046.6000,1583.8000,0.0000,0.0000,0.0000,
155,435.70,22951.69,-22951.69,1454.2000,65535.0000,3127.2000,1673.0000,0.0000,0.0000,0.0000,
156,436.24,22923.00,-22923.00,1458.6000,65535.0000,3082.4000,1623.8000,0.0000,0.0000,0.0000,
157,436.79,22894.39,-22894.39,1438.4000,65535.0000,3129.6000,1691.2000,0.0000,0.0000,0.0000,
158,437.33,22865.87,-22865.87,1453.0000,65535.0000,3153.0000,1700.0000,0.0000,0.0000,0.0000,
159,437.88,22837.42,-22837.42,1452.0000,65535.0000,3115.6000,1663.6000,0.0000,0.0000,0.0000,
160,438.42,22809.06,-22809.06,1424.0000,65535.0000,3188.6000,1764.6000,0.0000,0.0000,0.0000,
161,438.97,22780.78,-22780.78,1453.4000,65535.0000,3213.6000,1760.2000,0.0000,0.0000,0.0000,
162,439.51,22752.58,-22752.58,1445.6000,65535.0000,3228.4000,1782.8000,0.0000,0.0000,0.0000,
163,440.05,22724.46,-22724.46,1435.6000,65535.0000,3256.6000,1821.0000,0.0000,0.0000,0.0000,
164,440.60,22696.42,-22696.42,1436.8000,65535.0000,3313.8000,1877.0000,0.0000,0.0000,0.0000,
165,441.14,22668.47,-22668.47,1458.2000,65535.0000,3333.0000,1874.8000,0.0000,0.0000,0.0000,
166,441.68,22640.59,-22640.59,1454.6000,65535.0000,3381.4000,1926.8000,0.0000,0.0000,0.0000,
167,442.23,22612.78,-22612.78,1435.8000,65535.0000,3382.6000,1946.8000,0.0000,0.0000,0.0000,
168,442.77,22585.06,-22585.06,1438.8000,65535.0000,3422.2000,1983.4000,0.0000,0.0000,0.0000,
169,443.31,22557.42,-22557.42,1455.8000,65535.0000,3402.4000,1946.6000,0.0000,0.0000,0.0000,
170,443.86,22529.85,-22529.85,1456.8000,65535.0000,3462.6000,2005.8000,0.0000,0.0000,0.0000,
171,444.40,22502.36,-22502.36,1447.8000,65535.0000,3482.4000,2034.6000,0.0000,0.0000,0.0000,
172,444.94,22474.95,-22474.95,1427.4000,65535.0000,3528.8000,2101.4000,0.0000,0.0000,0.0000,
173,445.48,22447.62,-22447.62,1428.0000,65535.0000,3565.0000,2137.0000,0.0000,0.0000,0.0000,
174,446.02,22420.36,-22420.36,1426.4000,65535.0000,3587.0000,2160.6000,0.0000,0.0000,0.0000,
175,446.56,22393.18,-22393.18,1443.6000,65535.0000,3653.6000,2210.0000,0.0000,0.0000,0.0000,
176,447.11,22366.08,-22366.08,1452.2000,65535.0000,3633.6000,2181.4000,0.0000,0.0000,0.0000,
177,447.65,22339.05,-22339.05,1462.4000,65535.0000,3682.6000,2220.2000,0.0000,0.0000,0.0000,
178,448.19,22312.10,-22312.10,1457.2000,65535.0000,3717.2000,2260.0000,0.0000,0.0000,0.0000,
179,448.73,22285.22,-22285.22,1467.2000,65535.0000,3761.4000,2294.2000,0.0000,0.0000,0.0000,
180,449.27,22258.42,-22258.42,1467.2000,65535.0000,3761.2000,2294.0000,0.0000,0.0000,0.0000,
181,449.81,22231.69,-22231.69,1453.8000,65535.0000,3829.0000,2375.2000,0.0000,0.0000,0.0000,
182,450.35,22205.03,-22205.03,1462.4000,65535.0000,3899.4000,2437.0000,0.0000,0.0000,0.0000,
183,450.89,22178.45,-22178.45,1450.6000,65535.0000,3905.6000,2455.0000,0.0000,0.0000,0.0000,
184,451.43,22151.95,-22151.95,1460.2000,65535.0000,4012.0000,2551.8000,0.0000,0.0000,0.0000,
185,451.97,22125.51,-22125.51,1450.0000,65535.0000,4011.2000,2561.2000,0.0000,0.0000,0.0000,
186,452.51,22099.15,-22099.15,1458.4000,65535.0000,3990.8000,2532.4000,0.0000,0.0000,0.0000,
187,453.04,22072.87,-22072.87,1447.2000,65535.0000,4106.0000,2658.8000,0.0000,0.0000,0.0000,
188,453.58,22046.65,-22046.65,1449.4000,65535.0000,4125.6000,2676.2000,0.0000,0.0000,0.0000,
189,454.12,22020.51,-22020.51,1457.6000,65535.0000,4180.0000,2722.4000,0.0000,0.0000,0.0000,
190,454.66,21994.44,-21994.44,1442.6000,65535.0000,4215.2000,2772.6000,0.0000,0.0000,0.0000,
191,455.20,21968.44,-21968.44,1434.6000,65535.0000,4286.2000,2851.6000,0.0000,0.0000,0.0000,
192,455.74,21942.51,-21942.51,1446.8000,65535.0000,4292.2000,2845.4000,0.0000,0.0000,0.0000,
193,456.27,21916.66,-21916.66,1461.2000,65535.0000,4351.8000,2890.6000,0.0000,0.0000,0.0000,
194,456.81,21890.87,-21890.87,1452.8000,65535.0000,4420.8000,2968.0000,0.0000,0.0000,0.0000,
195,457.35,21865.16,-21865.16,1451.8000,65535.0000,4476.6000,3024.8000,0.0000,0.0000,0.0000,
196,457.89,21839.51,-21839.51,1464.4000,65535.0000,4558.4000,3094.0000,0.0000,0.0000,0.0000,
197,458.42,21813.94,-21813.94,1463.8000,65535.0000,4576.4000,3112.6000,0.0000,0.0000,0.0000,
198,458.96,21788.43,-21788.43,1453.4000,65535.0000,4669.6000,3216.2000,0.0000,0.0000,0.0000,
199,459.50,21763.00,-21763.00,1457.2000,65535.0000,4660.0000,3202.8000,0.0000,0.0000,0.0000,
200,460.03,21737.63,-21737.63,1466.0000,65535.0000,4671.4000,3205.4000,0.0000,0.0000,0.0000,
201,460.57,21712.33,-21712.33,1440.4000,65535.0000,4765.2000,3324.8000,0.0000,0.0000,0.0000,
202,461.10,21687.10,-21687.10,1454.4000,65535.0000,4783.4000,3329.0000,0.0000,0.0000,0.0000,
203,461.64,21661.94,-21661.94,1435.2000,65535.0000,4817.2000,3382.0000,0.0000,0.0000,0.0000,
204,462.17,21636.85,-21636.85,1439.0000,65535.0000,4861.6000,3422.6000,0.0000,0.0000,0.0000,
205,462.71,21611.82,-21611.82,1471.6000,65535.0000,4922.4000,3450.8000,0.0000,0.0000,0.0000,
206,463.24,21586.86,-21586.86,1456.2000,65535.0000,4882.4000,3426.2000,0.0000,0.0000,0.0000,
207,463.78,21561.97,-21561.97,1445.0000,65535.0000,4904.4000,3459.4000,0.0000,0.0000,0.0000,
208,464.31,21537.15,-21537.15,1442.2000,65535.0000,4943.0000,3500.8000,0.0000,0.0000,0.0000,
209,464.85,21512.39,-21512.39,1440.4000,65535.0000,5022.2000,3581.8000,0.0000,0.0000,0.0000,
210,465.38,21487.70,-21487.70,1442.6000,65535.0000,5079.2000,3636.6000,0.0000,0.0000,0.0000,
211,465.92,21463.07,-21463.07,1433.8000,65535.0000,5206.4000,3772.6000,0.0000,0.0000,0.0000,
212,466.45,21438.51,-21438.51,1434.6000,65535.0000,5183.2000,3748.6000,0.0000,0.0000,0.0000,
213,466.98,21414.02,-21414.02,1455.2000,65535.0000,5254.6000,3799.4000,0.0000,0.0000,0.0000,
214,467.52,21389.59,-21389.59,1456.2000,65535.0000,5308.0000,3851.8000,0.0000,0.0000,0.0000,
215,468.05,21365.23,-21365.23,1452.2000,65535.0000,5396.0000,3943.8000,0.0000,0.0000,0.0000,
216,468.58,21340.93,-21340.93,1463.2000,65535.0000,5436.0000,3972.8000,0.0000,0.0000,0.0000,
217,469.12,21316.70,-21316.70,1439.6000,65535.0000,5604.0000,4164.4000,0.0000,0.0000,0.0000,
218,469.65,21292.53,-21292.53,1434.6000,65535.0000,5661.0000,4226.4000,0.0000,0.0000,0.0000,
219,470.18,21268.42,-21268.42,1445.4000,65535.0000,5698.0000,4252.6000,0.0000,0.0000,0.0000,
220,470.71,21244.38,-21244.38,1441.4000,65535.0000,5848.2000,4406.8000,0.0000,0.0000,0.0000,
221,471.24,21220.40,-21220.40,1454.2000,65535.0000,5892.8000,4438.6000,0.0000,0.0000,0.0000,
222,471.78,21196.49,-21196.49,1464.2000,65535.0000,6019.2000,4555.0000,0.0000,0.0000,0.0000,
223,472.31,21172.64,-21172.64,1436.2000,65535.0000,6138.6000,4702.4000,0.0000,0.0000,0.0000,
224,472.84,21148.85,-21148.85,1441.4000,65535.0000,6210.2000,4768.8000,0.0000,0.0000,0.0000,
225,473.37,21125.12,-21125.12,1423.8000,65535.0000,6382.8000,4959.0000,0.0000,0.0000,0.0000,
226,473.90,21101.46,-21101.46,1438.2000,65535.0000,6456.6000,5018.4000,0.0000,0.0000,0.0000,
227,474.43,21077.86,-21077.86,1457.2000,65535.0000,6559.6000,5102.4000,0.0000,0.0000,0.0000,
228,474.96,21054.32,-21054.32,1445.2000,65535.0000,6735.6000,5290.4000,0.0000,0.0000,0.0000,
229,475.49,21030.84,-21030.84,1438.0000,65535.0000,6936.0000,5498.0000,0.0000,0.0000,0.0000,
230,476.02,21007.43,-21007.43,1457.6000,65535.0000,7063.6000,5606.0000,0.0000,0.0000,0.0000,
231,476.55,20984.07,-20984.07,1485.4000,65535.0000,7199.8000,5714.4000,0.0000,0.0000,0.0000,
232,477.08,20960.78,-20960.78,1436.6000,65535.0000,7384.0000,5947.4000,0.0000,0.0000,0.0000,
233,477.61,20937.54,-20937.54,1445.0000,65535.0000,7571.8000,6126.8000,0.0000,0.0000,0.0000,
234,478.14,20914.37,-20914.37,1446.2000,65535.0000,7672.0000,6225.8000,0.0000,0.0000,0.0000,
235,478.67,20891.26,-20891.26,1435.4000,65535.0000,7827.2000,6391.8000,0.0000,0.0000,0.0000,
236,479.20,20868.20,-20868.20,1420.8000,65535.0000,8097.4000,6676.6000,0.0000,0.0000,0.0000,
237,479.73,20845.21,-20845.21,1439.0000,65535.0000,8172.6000,6733.6000,0.0000,0.0000,0.0000,
238,480.25,20822.28,-20822.28,1432.4000,65535.0000,8394.2000,6961.8000,0.0000,0.0000,0.0000,
239,480.78,20799.40,-20799.40,1428.2000,65535.0000,8629.4000,7201.2000,0.0000,0.0000,0.0000,
240,481.31,20776.59,-20776.59,1454.4000,65535.0000,8776.4000,7322.0000,0.0000,0.0000,0.0000,
241,481.84,20753.83,-20753.83,1449.8000,65535.0000,8894.6000,7444.8000,0.0000,0.0000,0.0000,
242,482.37,20731.14,-20731.14,1459.4000,65535.0000,9157.4000,7698.0000,0.0000,0.0000,0.0000,
243,482.89,20708.50,-20708.50,1441.2000,65535.0000,9354.2000,7913.0000,0.0000,0.0000,0.0000,
244,483.42,20685.92,-20685.92,1450.6000,65535.0000,9642.4000,8191.8000,0.0000,0.0000,0.0000,
245,483.95,20663.40,-20663.40,1433.8000,65535.0000,9778.4000,8344.6000,0.0000,0.0000,0.0000,
246,484.47,20640.93,-20640.93,1432.6000,65535.0000,10043.6000,8611.0000,0.0000,0.0000,0.0000,
247,485.00,20618.52,-20618.52,1460.2000,65535.0000,10157.0000,8696.8000,0.0000,0.0000,0.0000,
248,485.53,20596.17,-20596.17,1433.8000,65535.0000,10420.4000,8986.6000,0.0000,0.0000,0.0000,
249,486.05,20573.88,-20573.88,1444.0000,65535.0000,10627.4000,9183.4000,0.0000,0.0000,0.0000,
250,486.58,20551.65,-20551.65,1445.8000,65535.0000,10799.8000,9354.0000,0.0000,0.0000,0.0000,
251,487.10,20529.47,-20529.47,1426.0000,65535.0000,11035.2000,9609.2000,0.0000,0.0000,0.0000,
252,487.63,20507.35,-20507.35,1414.2000,65535.0000,11182.8000,9768.6000,0.0000,0.0000,0.0000,
253,488.16,20485.28,-20485.28,1419.6000,65535.0000,11263.6000,9844.0000,0.0000,0.0000,0.0000,
254,488.68,20463.27,-20463.27,1446.0000,65535.0000,11471.8000,10025.8000,0.0000,0.0000,0.0000,
255,489.21,20441.32,-20441.32,1468.0000,65535.0000,11640.6000,10172.6000,0.0000,0.0000,0.0000,
256,489.73,20419.42,-20419.42,1430.4000,65535.0000,11869.6000,10439.2000,0.0000,0.0000,0.0000,
257,490.25,20397.57,-20397.57,1448.8000,65535.0000,11934.6000,10485.8000,0.0000,0.0000,0.0000,
258,490.78,20375.79,-20375.79,1442.4000,65535.0000,12156.6000,10714.2000,0.0000,0.0000,0.0000,
259,491.30,20354.05,-20354.05,1447.2000,65535.0000,12372.8000,10925.6000,0.0000,0.0000,0.0000,
260,491.83,20332.38,-20332.38,1428.8000,65535.0000,12500.2000,11071.4000,0.0000,0.0000,0.0000,
261,492.35,20310.75,-20310.75,1437.4000,65535.0000,12587.4000,11150.0000,0.0000,0.0000,0.0000,
262,492.87,20289.19,-20289.19,1451.6000,65535.0000,12807.8000,11356.2000,0.0000,0.0000,0.0000,
263,493.40,20267.67,-20267.67,1451.2000,65535.0000,12696.8000,11245.6000,0.0000,0.0000,0.0000,
264,493.92,20246.21,-20246.21,1451.4000,65535.0000,12941.0000,11489.6000,0.0000,0.0000,0.0000,
265,494.44,20224.80,-20224.80,1466.6000,65535.0000,13190.6000,11724.0000,0.0000,0.0000,0.0000,
266,494.96,20203.45,-20203.45,1456.4000,65535.0000,13174.4000,11718.0000,0.0000,0.0000,0.0000,
267,495.49,20182.15,-20182.15,1457.0000,65535.0000,13296.2000,11839.2000,0.0000,0.0000,0.0000,
268,496.01,20160.91,-20160.91,1434.0000,65535.0000,13533.8000,12099.8000,0.0000,0.0000,0.0000,
269,496.53,20139.71,-20139.71,1433.2000,65535.0000,13649.8000,12216.6000,0.0000,0.0000,0.0000,
270,497.05,20118.57,-20118.57,1460.8000,65535.0000,13844.8000,12384.0000,0.0000,0.0000,0.0000,
271,497.57,20097.49,-20097.49,1453.0000,65535.0000,13899.4000,12446.4000,0.0000,0.0000,0.0000,
272,498.10,20076.45,-20076.45,1448.8000,65535.0000,14064.8000,12616.0000,0.0000,0.0000,0.0000,
273,498.62,20055.47,-20055.47,1430.8000,65535.0000,14194.0000,12763.2000,0.0000,0.0000,0.0000,
274,499.14,20034.54,-20034.54,1434.8000,65535.0000,14250.0000,12815.2000,0.0000,0.0000,0.0000,
275,499.66,20013.66,-20013.66,1431.2000,65535.0000,14397.2000,12966.0000,0.0000,0.0000,0.0000,
276,500.18,19992.83,-19992.83,1436.4000,65535.0000,14488.2000,13051.8000,0.0000,0.0000,0.0000,
277,500.70,19972.06,-19972.06,1437.4000,65535.0000,14548.8000,13111.4000,0.0000,0.0000,0.0000,
278,501.22,19951.34,-19951.34,1459.2000,65535.0000,14792.0000,13332.8000,0.0000,0.0000,0.0000,
279,501.74,19930.66,-19930.66,1437.2000,65535.0000,14863.6000,13426.4000,0.0000,0.0000,0.0000,
280,502.26,19910.04,-19910.04,1462.4000,65535.0000,14893.8000,13431.4000,0.0000,0.0000,0.0000,
281,502.78,19889.47,-19889.47,1455.0000,65535.0000,15103.0000,13648.0000,0.0000,0.0000,0.0000,
282,503.30,19868.95,-19868.95,1426.8000,65535.0000,15196.4000,13769.6000,0.0000,0.0000,0.0000,
283,503.82,19848.48,-19848.48,1417.6000,65535.0000,15379.0000,13961.4000,0.0000,0.0000,0.0000,
284,504.34,19828.06,-19828.06,1445.4000,65535.0000,15434.4000,13989.0000,0.0000,0.0000,0.0000,
285,504.85,19807.69,-19807.69,1439.4000,65535.0000,15656.6000,14217.2000,0.0000,0.0000,0.0000,
286,505.37,19787.38,-19787.38,1445.2000,65535.0000,15879.8000,14434.6000,0.0000,0.0000,0.0000,
287,505.89,19767.11,-19767.11,1421.6000,65535.0000,16097.8000,14676.2000,0.0000,0.0000,0.0000,
288,506.41,19746.89,-19746.89,1446.2000,65535.0000,16083.4000,14637.2000,0.0000,0.0000,0.0000,
289,506.93,19726.72,-19726.72,1442.8000,65535.0000,16245.4000,14802.6000,0.0000,0.0000,0.0000,
290,507.44,19706.59,-19706.59,1439.2000,65535.0000,16355.4000,14916.2000,0.0000,0.0000,0.0000,
291,507.96,19686.52,-19686.52,1444.6000,65535.0000,16577.4000,15132.8000,0.0000,0.0000,0.0000,
292,508.48,19666.50,-19666.50,1451.8000,65535.0000,16788.4000,15336.6000,0.0000,0.0000,0.0000,
293,509.00,19646.52,-19646.52,1430.8000,65535.0000,16989.6000,15558.8000,0.0000,0.0000,0.0000,
294,509.51,19626.60,-19626.60,1439.8000,65535.0000,17269.8000,15830.0000,0.0000,0.0000,0.0000,
295,510.03,19606.72,-19606.72,1468.4000,65535.0000,17288.0000,15819.6000,0.0000,0.0000,0.0000,
296,510.55,19586.89,-19586.89,1445.8000,65535.0000,17471.2000,16025.4000,0.0000,0.0000,0.0000,
297,511.06,19567.11,-19567.11,1420.4000,65535.0000,17601.0000,16180.6000,0.0000,0.0000,0.0000,
298,511.58,19547.38,-19547.38,1448.2000,65535.0000,17850.4000,16402.2000,0.0000,0.0000,0.0000,
299,512.09,19527.69,-19527.69,1435.4000,65535.0000,17909.0000,16473.6000,0.0000,0.0000,0.0000,
300,512.61,19508.05,-19508.05,1457.8000,65535.0000,18150.8000,16693.0000,0.0000,0.0000,0.0000,
301,513.12,19488.46,-19488.46,1456.0000,65535.0000,18315.6000,16859.6000,0.0000,0.0000,0.0000,
302,513.64,19468.92,-19468.92,1458.4000,65535.0000,18555.2000,17096.8000,0.0000,0.0000,0.0000,
303,514.15,19449.42,-19449.42,1439.2000,65535.0000,18778.0000,17338.8000,0.0000,0.0000,0.0000,
304,514.67,19429.97,-19429.97,1462.0000,65535.0000,18938.8000,17476.8000,0.0000,0.0000,0.0000,
305,515.18,19410.56,-19410.56,1443.2000,65535.0000,18973.8000,17530.6000,0.0000,0.0000,0.0000,
306,515.70,19391.21,-19391.21,1438.0000,65535.0000,19317.6000,17879.6000,0.0000,0.0000,0.0000,
307,516.21,19371.90,-19371.90,1432.2000,65535.0000,19515.4000,18083.2000,0.0000,0.0000,0.0000,
308,516.73,19352.63,-19352.63,1451.0000,65535.0000,19681.4000,18230.4000,0.0000,0.0000,0.0000,
309,517.24,19333.41,-19333.41,1431.2000,65535.0000,19925.2000,18494.0000,0.0000,0.0000,0.0000,
310,517.75,19314.24,-19314.24,1460.0000,65535.0000,20041.2000,18581.2000,0.0000,0.0000,0.0000,
311,518.27,19295.11,-19295.11,1457.8000,65535.0000,20235.0000,18777.2000,0.0000,0.0000,0.0000,
312,518.78,19276.03,-19276.03,1429.8000,65535.0000,20499.8000,19070.0000,0.0000,0.0000,0.0000,
313,519.29,19257.00,-19257.00,1457.8000,65535.0000,20785.8000,19328.0000,0.0000,0.0000,0.0000,
314,519.80,19238.01,-19238.01,1456.4000,65535.0000,20961.0000,19504.6000,0.0000,0.0000,0.0000,
315,520.32,19219.06,-19219.06,1438.8000,65535.0000,21111.8000,19673.0000,0.0000,0.0000,0.0000,
316,520.83,19200.16,-19200.16,1452.0000,65535.0000,21451.2000,19999.2000,0.0000,0.0000,0.0000,
317,521.34,19181.30,-19181.30,1422.6000,65535.0000,21679.8000,20257.2000,0.0000,0.0000,0.0000,
318,521.85,19162.49,-19162.49,1455.6000,65535.0000,21834.0000,20378.4000,0.0000,0.0000,0.0000,
319,522.36,19143.73,-19143.73,1439.2000,65535.0000,21973.0000,20533.8000,0.0000,0.0000,0.0000,
320,522.88,19125.00,-19125.00,1440.6000,65535.0000,22006.2000,20565.6000,0.0000,0.0000,0.0000,
321,523.39,19106.33,-19106.33,1460.0000,65535.0000,22226.2000,20766.2000,0.0000,0.0000,0.0000,
322,523.90,19087.69,-19087.69,1464.2000,65535.0000,22277.0000,20812.8000,0.0000,0.0000,0.0000,
323,524.41,19069.10,-19069.10,1451.0000,65535.0000,22578.6000,21127.6000,0.0000,0.0000,0.0000,
324,524.92,19050.55,-19050.55,1437.8000,65535.0000,22698.4000,21260.6000,0.0000,0.0000,0.0000,
325,525.43,19032.05,-19032.05,1425.4000,65535.0000,23155.2000,21729.8000,0.0000,0.0000,0.0000,
326,525.94,19013.59,-19013.59,1438.2000,65535.0000,23190.2000,21752.0000,0.0000,0.0000,0.0000,
327,526.45,18995.17,-18995.17,1479.8000,65535.0000,23311.4000,21831.6000,0.0000,0.0000,0.0000,
328,526.96,18976.80,-18976.80,1461.6000,65535.0000,23423.8000,21962.2000,0.0000,0.0000,0.0000,
329,527.47,18958.47,-18958.47,1459.8000,65535.0000,23530.8000,22071.0000,0.0000,0.0000,0.0000,
330,527.98,18940.18,-18940.18,1426.2000,65535.0000,23765.2000,22339.0000,0.0000,0.0000,0.0000,
331,528.49,18921.94,-18921.94,1475.6000,65535.0000,23871.6000,22396.0000,0.0000,0.0000,0.0000,
332,529.00,18903.74,-18903.74,1467.2000,65535.0000,24116.6000,22649.4000,0.0000,0.0000,0.0000,
333,529.50,18885.58,-18885.58,1426.4000,65535.0000,24108.0000,22681.6000,0.0000,0.0000,0.0000,
334,530.01,18867.46,-18867.46,1451.8000,65535.0000,24445.4000,22993.6000,0.0000,0.0000,0.0000,
335,530.52,18849.38,-18849.38,1429.8000,65535.0000,24417.0000,22987.2000,0.0000,0.0000,0.0000,
336,531.03,18831.35,-18831.35,1450.2000,65535.0000,24414.6000,22964.4000,0.0000,0.0000,0.0000,
337,531.54,18813.36,-18813.36,1454.4000,65535.0000,24698.6000,23244.2000,0.0000,0.0000,0.0000,
338,532.04,18795.41,-18795.41,1456.2000,65535.0000,24635.6000,23179.4000,0.0000,0.0000,0.0000,
339,532.55,18777.50,-18777.50,1459.8000,65535.0000,24770.2000,23310.4000,0.0000,0.0000,0.0000,
340,533.06,18759.63,-18759.63,1445.2000,65535.0000,24870.4000,23425.2000,0.0000,0.0000,0.0000,
341,533.57,18741.80,-18741.80,1474.2000,65535.0000,24896.6000,23422.4000,0.0000,0.0000,0.0000,
342,534.07,18724.02,-18724.02,1449.4000,65535.0000,25052.6000,23603.2000,0.0000,0.0000,0.0000,
343,534.58,18706.28,-18706.28,1440.4000,65535.0000,25013.4000,23573.0000,0.0000,0.0000,0.0000,
344,535.09,18688.57,-18688.57,1411.6000,65535.0000,25005.8000,23594.2000,0.0000,0.0000,0.0000,
345,535.59,18670.91,-18670.91,1432.6000,65535.0000,25227.0000,23794.4000,0.0000,0.0000,0.0000,
346,536.10,18653.29,-18653.29,1455.8000,65535.0000,25466.6000,24010.8000,0.0000,0.0000,0.0000,
347,536.60,18635.71,-18635.71,1450.8000,65535.0000,25515.0000,24064.2000,0.0000,0.0000,0.0000,
348,537.11,18618.17,-18618.17,1440.4000,65535.0000,25499.8000,24059.4000,0.0000,0.0000,0.0000,
349,537.62,18600.67,-18600.67,1439.0000,65535.0000,25858.8000,24419.8000,0.0000,0.0000,0.0000,
350,538.12,18583.21,-18583.21,1434.8000,65535.0000,26125.2000,24690.4000,0.0000,0.0000,0.0000,
351,538.63,18565.78,-18565.78,1445.8000,65535.0000,26022.4000,24576.6000,0.0000,0.0000,0.0000,
352,539.13,18548.40,-18548.40,1433.0000,65535.0000,26113.4000,24680.4000,0.0000,0.0000,0.0000,
353,539.63,18531.06,-18531.06,1426.0000,65535.0000,26336.0000,24910.0000,0.0000,0.0000,0.0000,
354,540.14,18513.76,-18513.76,1435.8000,65535.0000,26320.2000,24884.4000,0.0000,0.0000,0.0000,
355,540.64,18496.50,-18496.50,1437.8000,65535.0000,26281.2000,24843.4000,0.0000,0.0000,0.0000,
356,541.15,18479.28,-18479.28,1461.6000,65535.0000,26467.0000,25005.4000,0.0000,0.0000,0.0000,
357,541.65,18462.09,-18462.09,1449.8000,65535.0000,26547.2000,25097.4000,0.0000,0.0000,0.0000,
358,542.15,18444.95,-18444.95,1432.6000,65535.0000,26802.6000,25370.0000,0.0000,0.0000,0.0000,
359,542.66,18427.84,-18427.84,1455.4000,65535.0000,26898.2000,25442.8000,0.0000,0.0000,0.0000,
360,543.16,18410.77,-18410.77,1442.0000,65535.0000,26975.2000,25533.2000,0.0000,0.0000,0.0000,
361,543.66,18393.74,-18393.74,1451.8000,65535.0000,26986.6000,25534.8000,0.0000,0.0000,0.0000,
362,544.17,18376.75,-18376.75,1453.2000,65535.0000,27297.0000,25843.8000,0.0000,0.0000,0.0000,
363,544.67,18359.80,-18359.80,1463.4000,65535.0000,27432.8000,25969.4000,0.0000,0.0000,0.0000,
364,545.17,18342.89,-18342.89,1486.2000,65535.0000,27661.0000,26174.8000,0.0000,0.0000,0.0000,
365,545.67,18326.01,-18326.01,1464.8000,65535.0000,27556.2000,26091.4000,0.0000,0.0000,0.0000,
366,546.17,18309.17,-18309.17,1461.8000,65535.0000,27716.2000,26254.4000,0.0000,0.0000,0.0000,
367,546.68,18292.37,-18292.37,1449.6000,65535.0000,27849.8000,26400.2000,0.0000,0.0000,0.0000,
368,547.18,18275.61,-18275.61,1471.4000,65535.0000,27967.8000,26496.4000,0.0000,0.0000,0.0000,
369,547.68,18258.89,-18258.89,1475.8000,65535.0000,28218.2000,26742.4000,0.0000,0.0000,0.0000,
370,548.18,18242.20,-18242.20,1452.8000,65535.0000,28262.2000,26809.4000,0.0000,0.0000,0.0000,
371,548.68,18225.55,-18225.55,1447.4000,65535.0000,28306.8000,26859.4000,0.0000,0.0000,0.0000,
372,549.18,18208.94,-18208.94,1465.6000,65535.0000,28616.8000,27151.2000,0.0000,0.0000,0.0000,
373,549.68,18192.37,-18192.37,1447.4000,65535.0000,28631.6000,27184.2000,0.0000,0.0000,0.0000,
374,550.18,18175.83,-18175.83,1442.8000,65535.0000,28899.0000,27456.2000,0.0000,0.0000,0.0000,
375,550.68,18159.33,-18159.33,1432.0000,65535.0000,29039.8000,27607.8000,0.0000,0.0000,0.0000,
376,551.18,18142.86,-18142.86,1420.8000,65535.0000,28896.2000,27475.4000,0.0000,0.0000,0.0000,
377,551.68,18126.43,-18126.43,1460.6000,65535.0000,29089.6000,27629.0000,0.0000,0.0000,0.0000,
378,552.18,18110.04,-18110.04,1441.4000,65535.0000,29192.2000,27750.8000,0.0000,0.0000,0.0000,
379,552.68,18093.69,-18093.69,1458.4000,65535.0000,29350.0000,27891.6000,0.0000,0.0000,0.0000,
380,553.18,18077.37,-18077.37,1459.4000,65535.0000,29802.0000,28342.6000,0.0000,0.0000,0.0000,
381,553.68,18061.09,-18061.09,1425.4000,65535.0000,30043.4000,28618.0000,0.0000,0.0000,0.0000,
382,554.18,18044.84,-18044.84,1441.2000,65535.0000,30198.4000,28757.2000,0.0000,0.0000,0.0000,
383,554.67,18028.63,-18028.63,1449.6000,65535.0000,30528.8000,29079.2000,0.0000,0.0000,0.0000,
384,555.17,18012.46,-18012.46,1455.4000,65535.0000,30717.0000,29261.6000,0.0000,0.0000,0.0000,
385,555.67,17996.32,-17996.32,1417.0000,65535.0000,30432.2000,29015.2000,0.0000,0.0000,0.0000,
386,556.17,17980.22,-17980.22,1434.4000,65535.0000,30816.0000,29381.6000,0.0000,0.0000,0.0000,
387,556.66,17964.15,-17964.15,1446.8000,65535.0000,31189.0000,29742.2000,0.0000,0.0000,0.0000,
388,557.16,17948.12,-17948.12,1443.6000,65535.0000,31380.0000,29936.4000,0.0000,0.0000,0.0000,
389,557.66,17932.12,-17932.12,1456.4000,65535.0000,31541.4000,30085.0000,0.0000,0.0000,0.0000,
390,558.16,17916.16,-17916.16,1457.8000,65535.0000,31791.8000,30334.0000,0.0000,0.0000,0.0000,
391,558.65,17900.23,-17900.23,1434.6000,65535.0000,31654.2000,30219.6000,0.0000,0.0000,0.0000,
392,559.15,17884.34,-17884.34,1422.4000,65535.0000,31929.4000,30507.0000,0.0000,0.0000,0.0000,
393,559.64,17868.48,-17868.48,1448.8000,65535.0000,32158.4000,30709.6000,0.0000,0.0000,0.0000,
394,560.14,17852.66,-17852.66,1446.8000,65535.0000,32742.8000,31296.0000,0.0000,0.0000,0.0000,
395,560.64,17836.87,-17836.87,1428.6000,65535.0000,32709.6000,31281.0000,0.0000,0.0000,0.0000,
396,561.13,17821.12,-17821.12,1440.8000,65535.0000,32863.2000,31422.4000,0.0000,0.0000,0.0000,
397,561.63,17805.40,-17805.40,1452.0000,65535.0000,33211.4000,31759.4000,0.0000,0.0000,0.0000,
398,562.12,17789.72,-17789.72,1409.6000,65535.0000,33533.4000,32123.8000,0.0000,0.0000,0.0000,
399,562.62,17774.07,-17774.07,1439.2000,65535.0000,33637.0000,32197.8000,0.0000,0.0000,0.0000,
400,563.11,17758.45,-17758.45,1441.4000,65535.0000,34217.2000,32775.8000,0.0000,0.0000,0.0000,
401,563.61,17742.87,-17742.87,1427.2000,65535.0000,34043.0000,32615.8000,0.0000,0.0000,0.0000,
402,564.10,17727.32,-17727.32,1442.0000,65535.0000,34355.8000,32913.8000,0.0000,0.0000,0.0000,
403,564.60,17711.81,-17711.81,1441.6000,65535.0000,34237.8000,32796.2000,0.0000,0.0000,0.0000,
404,565.09,17696.33,-17696.33,1449.6000,65535.0000,34445.4000,32995.8000,0.0000,0.0000,0.0000,
405,565.58,17680.88,-17680.88,1442.8000,65535.0000,34915.2000,33472.4000,0.0000,0.0000,0.0000,
406,566.08,17665.47,-17665.47,1435.0000,65535.0000,34892.4000,33457.4000,0.0000,0.0000,0.0000,
407,566.57,17650.09,-17650.09,1438.2000,65535.0000,35243.8000,33805.6000,0.0000,0.0000,0.0000,
408,567.06,17634.74,-17634.74,1454.4000,65535.0000,35077.2000,33622.8000,0.0000,0.0000,0.0000,
409,567.56,17619.42,-17619.42,1455.8000,65535.0000,35408.0000,33952.2000,0.0000,0.0000,0.0000,
410,568.05,17604.14,-17604.14,1433.4000,65535.0000,35659.8000,34226.4000,0.0000,0.0000,0.0000,
411,568.54,17588.90,-17588.90,1461.2000,65535.0000,36006.4000,34545.2000,0.0000,0.0000,0.0000,
412,569.03,17573.68,-17573.68,1457.4000,65535.0000,36313.6000,34856.2000,0.0000,0.0000,0.0000,
413,569.52,17558.50,-17558.50,1449.8000,65535.0000,36294.8000,34845.0000,0.0000,0.0000,0.0000,
414,570.02,17543.35,-17543.35,1436.6000,65535.0000,36603.8000,35167.2000,0.0000,0.0000,0.0000,
415,570.51,17528.23,-17528.23,1455.8000,65535.0000,36562.0000,35106.2000,0.0000,0.0000,0.0000,
416,571.00,17513.15,-17513.15,1429.8000,65535.0000,36495.8000,35066.0000,0.0000,0.0000,0.0000,
417,571.49,17498.09,-17498.09,1449.4000,65535.0000,36642.2000,35192.8000,0.0000,0.0000,0.0000,
418,571.98,17483.07,-17483.07,1427.0000,65535.0000,36729.2000,35302.2000,0.0000,0.0000,0.0000,
419,572.47,17468.08,-17468.08,1446.4000,65535.0000,37041.0000,35594.6000,0.0000,0.0000,0.0000,
420,572.96,17453.13,-17453.13,1431.6000,65535.0000,37264.8000,35833.2000,0.0000,0.0000,0.0000,
421,573.45,17438.20,-17438.20,1437.2000,65535.0000,36837.4000,35400.2000,0.0000,0.0000,0.0000,
422,573.94,17423.31,-17423.31,1445.0000,65535.0000,36945.6000,35500.6000,0.0000,0.0000,0.0000,
423,574.43,17408.45,-17408.45,1442.8000,65535.0000,37131.6000,35688.8000,0.0000,0.0000,0.0000,
424,574.92,17393.62,-17393.62,1465.8000,65535.0000,37244.4000,35778.6000,0.0000,0.0000,0.0000,
425,575.41,17378.82,-17378.82,1447.0000,65535.0000,37286.6000,35839.6000,0.0000,0.0000,0.0000,
426,575.90,17364.06,-17364.06,1433.6000,65535.0000,37410.6000,35977.0000,0.0000,0.0000,0.0000,
427,576.39,17349.32,-17349.32,1461.8000,65535.0000,37513.0000,36051.2000,0.0000,0.0000,0.0000,
428,576.88,17334.62,-17334.62,1443.2000,65535.0000,37322.4000,35879.2000,0.0000,0.0000,0.0000,
429,577.37,17319.95,-17319.95,1429.8000,65535.0000,37637.4000,36207.6000,0.0000,0.0000,0.0000,
430,577.86,17305.31,-17305.31,1464.2000,65535.0000,37600.0000,36135.8000,0.0000,0.0000,0.0000,
431,578.35,17290.70,-17290.70,1453.0000,65535.0000,37811.8000,36358.8000,0.0000,0.0000,0.0000,
432,578.83,17276.12,-17276.12,1442.0000,65535.0000,37941.0000,36499.0000,0.0000,0.0000,0.0000,
433,579.32,17261.57,-17261.57,1440.4000,65535.0000,37806.0000,36365.6000,0.0000,0.0000,0.0000,
434,579.81,17247.05,-17247.05,1446.2000,65535.0000,37526.4000,36080.2000,0.0000,0.0000,0.0000,
435,580.30,17232.56,-17232.56,1458.6000,65535.0000,37719.6000,36261.0000,0.0000,0.0000,0.0000,
436,580.78,17218.10,-17218.10,1459.8000,65535.0000,37865.4000,36405.6000,0.0000,0.0000,0.0000,
437,581.27,17203.68,-17203.68,1465.8000,65535.0000,38067.6000,36601.8000,0.0000,0.0000,0.0000,
438,581.76,17189.28,-17189.28,1449.8000,65535.0000,38213.2000,36763.4000,0.0000,0.0000,0.0000,
439,582.24,17174.92,-17174.92,1463.0000,65535.0000,38474.8000,37011.8000,0.0000,0.0000,0.0000,
440,582.73,17160.58,-17160.58,1419.4000,65535.0000,38295.2000,36875.8000,0.0000,0.0000,0.0000,
441,583.22,17146.27,-17146.27,1419.2000,65535.0000,38656.4000,37237.2000,0.0000,0.0000,0.0000,
442,583.70,17132.00,-17132.00,1476.0000,65535.0000,38284.8000,36808.8000,0.0000,0.0000,0.0000,
443,584.19,17117.75,-17117.75,1432.0000,65535.0000,38525.2000,37093.2000,0.0000,0.0000,0.0000,
444,584.67,17103.54,-17103.54,1436.4000,65535.0000,38405.0000,36968.6000,0.0000,0.0000,0.0000,
445,585.16,17089.35,-17089.35,1464.8000,65535.0000,38332.0000,36867.2000,0.0000,0.0000,0.0000,
446,585.64,17075.19,-17075.19,1441.2000,65535.0000,38114.0000,36672.8000,0.0000,0.0000,0.0000,
447,586.13,17061.07,-17061.07,1430.8000,65535.0000,38337.2000,36906.4000,0.0000,0.0000,0.0000,
448,586.61,17046.97,-17046.97,1432.6000,65535.0000,38421.4000,36988.8000,0.0000,0.0000,0.0000,
449,587.10,17032.90,-17032.90,1437.4000,65535.0000,38889.0000,37451.6000,0.0000,0.0000,0.0000,
450,587.58,17018.86,-17018.86,1432.4000,65535.0000,39026.4000,37594.0000,0.0000,0.0000,0.0000,
451,588.07,17004.85,-17004.85,1437.0000,65535.0000,39028.0000,37591.0000,0.0000,0.0000,0.0000,
452,588.55,16990.87,-16990.87,1435.4000,65535.0000,39017.2000,37581.8000,0.0000,0.0000,0.0000,
453,589.04,16976.92,-16976.92,1447.0000,65535.0000,39122.2000,37675.2000,0.0000,0.0000,0.0000,
454,589.52,16962.99,-16962.99,1449.2000,65535.0000,39533.4000,38084.2000,0.0000,0.0000,0.0000,
455,590.00,16949.10,-16949.10,1454.2000,65535.0000,39421.4000,37967.2000,0.0000,0.0000,0.0000,
456,590.48,16935.23,-16935.23,1440.8000,65535.0000,39619.4000,38178.6000,0.0000,0.0000,0.0000,
457,590.97,16921.40,-16921.40,1436.4000,65535.0000,39567.4000,38131.0000,0.0000,0.0000,0.0000,
458,591.45,16907.59,-16907.59,1434.4000,65535.0000,39739.8000,38305.4000,0.0000,0.0000,0.0000,
459,591.93,16893.81,-16893.81,1431.4000,65535.0000,39928.2000,38496.8000,0.0000,0.0000,0.0000,
460,592.42,16880.06,-16880.06,1418.2000,65535.0000,39901.2000,38483.0000,0.0000,0.0000,0.0000,
461,592.90,16866.33,-16866.33,1445.0000,65535.0000,40281.8000,38836.8000,0.0000,0.0000,0.0000,
462,593.38,16852.64,-16852.64,1455.6000,65535.0000,40455.0000,38999.4000,0.0000,0.0000,0.0000,
463,593.86,16838.97,-16838.97,1448.4000,65535.0000,40503.4000,39055.0000,0.0000,0.0000,0.0000,
464,594.34,16825.33,-16825.33,1436.4000,65535.0000,40607.4000,39171.0000,0.0000,0.0000,0.0000,
465,594.82,16811.72,-16811.72,1452.6000,65535.0000,40579.0000,39126.4000,0.0000,0.0000,0.0000,
466,595.30,16798.14,-16798.14,1465.2000,65535.0000,40437.8000,38972.6000,0.0000,0.0000,0.0000,
467,595.78,16784.58,-16784.58,1429.6000,65535.0000,40206.4000,38776.8000,0.0000,0.0000,0.0000,
468,596.27,16771.05,-16771.05,1442.4000,65535.0000,40468.0000,39025.6000,0.0000,0.0000,0.0000,
469,596.75,16757.55,-16757.55,1462.8000,65535.0000,40534.6000,39071.8000,0.0000,0.0000,0.0000,
470,597.23,16744.08,-16744.08,1454.2000,65535.0000,40647.6000,39193.4000,0.0000,0.0000,0.0000,
471,597.71,16730.64,-16730.64,1449.4000,65535.0000,41117.6000,39668.2000,0.0000,0.0000,0.0000,
472,598.19,16717.22,-16717.22,1459.2000,65535.0000,41432.2000,39973.0000,0.0000,0.0000,0.0000,
473,598.67,16703.83,-16703.83,1449.2000,65535.0000,41609.4000,40160.2000,0.0000,0.0000,0.0000,
474,599.14,16690.47,-16690.47,1434.0000,65535.0000,41718.6000,40284.6000,0.0000,0.0000,0.0000,
475,599.62,16677.13,-16677.13,1440.0000,65535.0000,41864.0000,40424.0000,0.0000,0.0000,0.0000,
476,600.10,16663.82,-16663.82,1437.6000,65535.0000,42178.0000,40740.4000,0.0000,0.0000,0.0000,
477,600.58,16650.54,-16650.54,1421.2000,65535.0000,41966.4000,40545.2000,0.0000,0.0000,0.0000,
478,601.06,16637.29,-16637.29,1458.0000,65535.0000,41789.4000,40331.4000,0.0000,0.0000,0.0000,
479,601.54,16624.06,-16624.06,1417.6000,65535.0000,41895.6000,40478.0000,0.0000,0.0000,0.0000,
480,602.02,16610.86,-16610.86,1432.2000,65535.0000,42022.4000,40590.2000,0.0000,0.0000,0.0000,
481,602.49,16597.68,-16597.68,1463.8000,65535.0000,42395.0000,40931.2000,0.0000,0.0000,0.0000,
482,602.97,16584.54,-16584.54,1453.6000,65535.0000,42686.4000,41232.8000,0.0000,0.0000,0.0000,
483,603.45,16571.42,-16571.42,1456.8000,65535.0000,42718.0000,41261.2000,0.0000,0.0000,0.0000,
484,603.93,16558.32,-16558.32,1440.6000,65535.0000,42919.0000,41478.4000,0.0000,0.0000,0.0000,
485,604.40,16545.25,-16545.25,1443.2000,65535.0000,42810.8000,41367.6000,0.0000,0.0000,0.0000,
486,604.88,16532.21,-16532.21,1460.6000,65535.0000,42809.2000,41348.6000,0.0000,0.0000,0.0000,
487,605.36,16519.20,-16519.20,1446.2000,65535.0000,42738.2000,41292.0000,0.0000,0.0000,0.0000,
488,605.83,16506.21,-16506.21,1444.8000,65535.0000,43097.2000,41652.4000,0.0000,0.0000,0.0000,
489,606.31,16493.24,-16493.24,1434.2000,65535.0000,43349.4000,41915.2000,0.0000,0.0000,0.0000,
490,606.78,16480.31,-16480.31,1421.2000,65535.0000,43386.8000,41965.6000,0.0000,0.0000,0.0000,
491,607.26,16467.39,-16467.39,1413.4000,65535.0000,43254.2000,41840.8000,0.0000,0.0000,0.0000,
492,607.74,16454.51,-16454.51,1463.6000,65535.0000,43472.4000,42008.8000,0.0000,0.0000,0.0000,
493,608.21,16441.65,-16441.65,1437.0000,65535.0000,43669.4000,42232.4000,0.0000,0.0000,0.0000,
494,608.69,16428.82,-16428.82,1459.6000,65535.0000,43813.2000,42353.6000,0.0000,0.0000,0.0000,
495,609.16,16416.01,-16416.01,1431.4000,65535.0000,43591.4000,42160.0000,0.0000,0.0000,0.0000,
496,609.64,16403.22,-16403.22,1444.0000,65535.0000,43585.0000,42141.0000,0.0000,0.0000,0.0000,
497,610.11,16390.47,-16390.47,1421.0000,65535.0000,43826.6000,42405.6000,0.0000,0.0000,0.0000,
498,610.59,16377.73,-16377.73,1455.2000,65535.0000,43953.4000,42498.2000,0.0000,0.0000,0.0000,
499,611.06,16365.03,-16365.03,1473.6000,65535.0000,44465.0000,42991.4000,0.0000,0.0000,0.0000,
500,611.53,16352.35,-16352.35,1473.8000,65535.0000,44668.0000,43194.2000,0.0000,0.0000,0.0000,
501,612.01,16339.69,-16339.69,1465.8000,65535.0000,44624.2000,43158.4000,0.0000,0.0000,0.0000,
502,612.48,16327.06,-16327.06,1488.0000,65535.0000,44336.2000,42848.2000,0.0000,0.0000,0.0000,
503,612.95,16314.46,-16314.46,1441.8000,65535.0000,44269.2000,42827.4000,0.0000,0.0000,0.0000,
504,613.43,16301.87,-16301.87,1466.6000,65535.0000,44589.8000,43123.2000,0.0000,0.0000,0.0000,
505,613.90,16289.32,-16289.32,1453.4000,65535.0000,44990.6000,43537.2000,0.0000,0.0000,0.0000,
506,614.37,16276.79,-16276.79,1434.8000,65535.0000,45113.8000,43679.0000,0.0000,0.0000,0.0000,
507,614.84,16264.28,-16264.28,1442.0000,65535.0000,44879.4000,43437.4000,0.0000,0.0000,0.0000,
508,615.32,16251.80,-16251.80,1439.4000,65535.0000,44742.8000,43303.4000,0.0000,0.0000,0.0000,
509,615.79,16239.34,-16239.34,1446.4000,65535.0000,44739.2000,43292.8000,0.0000,0.0000,0.0000,
510,616.26,16226.91,-16226.91,1445.8000,65535.0000,44613.6000,43167.8000,0.0000,0.0000,0.0000,
511,616.73,16214.50,-16214.50,1428.6000,65535.0000,45000.8000,43572.2000,0.0000,0.0000,0.0000,
512,617.20,16202.12,-16202.12,1459.4000,65535.0000,44962.4000,43503.0000,0.0000,0.0000,0.0000,
513,617.67,16189.76,-16189.76,1436.2000,65535.0000,44915.0000,43478.8000,0.0000,0.0000,0.0000,
514,618.15,16177.43,-16177.43,1444.0000,65535.0000,44961.2000,43517.2000,0.0000,0.0000,0.0000,
515,618.62,16165.12,-16165.12,1457.6000,65535.0000,45062.0000,43604.4000,0.0000,0.0000,0.0000,
516,619.09,16152.83,-16152.83,1454.8000,65535.0000,45274.8000,43820.0000,0.0000,0.0000,0.0000,
517,619.56,16140.57,-16140.57,1421.4000,65535.0000,44887.6000,43466.2000,0.0000,0.0000,0.0000,
518,620.03,16128.33,-16128.33,1443.2000,65535.0000,44508.4000,43065.2000,0.0000,0.0000,0.0000,
519,620.50,16116.12,-16116.12,1430.6000,65535.0000,45062.4000,43631.8000,0.0000,0.0000,0.0000,
520,620.97,16103.93,-16103.93,1422.8000,65535.0000,45102.4000,43679.6000,0.0000,0.0000,0.0000,
521,621.44,16091.76,-16091.76,1438.2000,65535.0000,45185.2000,43747.0000,0.0000,0.0000,0.0000,
522,621.91,16079.62,-16079.62,1430.0000,65535.0000,45004.6000,43574.6000,0.0000,0.0000,0.0000,
523,622.37,16067.50,-16067.50,1434.8000,65535.0000,44814.0000,43379.2000,0.0000,0.0000,0.0000,
524,622.84,16055.41,-16055.41,1452.8000,65535.0000,45078.0000,43625.2000,0.0000,0.0000,0.0000,
525,623.31,16043.33,-16043.33,1448.6000,65535.0000,45090.8000,43642.2000,0.0000,0.0000,0.0000,
526,623.78,16031.29,-16031.29,1430.0000,65535.0000,45325.4000,43895.4000,0.0000,0.0000,0.0000,
527,624.25,16019.26,-16019.26,1441.0000,65535.0000,45154.6000,43713.6000,0.0000,0.0000,0.0000,
528,624.72,16007.26,-16007.26,1444.0000,65535.0000,44961.0000,43517.0000,0.0000,0.0000,0.0000,
529,625.18,15995.28,-15995.28,1435.2000,65535.0000,45216.6000,43781.4000,0.0000,0.0000,0.0000,
530,625.65,15983.33,-15983.33,1468.0000,65535.0000,45113.4000,43645.4000,0.0000,0.0000,0.0000,
531,626.12,15971.40,-15971.40,1445.8000,65535.0000,44936.0000,43490.2000,0.0000,0.0000,0.0000,
532,626.59,15959.49,-15959.49,1436.0000,65535.0000,44888.8000,43452.8000,0.0000,0.0000,0.0000,
533,627.05,15947.60,-15947.60,1443.0000,65535.0000,45075.8000,43632.8000,0.0000,0.0000,0.0000,
534,627.52,15935.74,-15935.74,1452.4000,65535.0000,44875.6000,43423.2000,0.0000,0.0000,0.0000,
535,627.99,15923.90,-15923.90,1452.6000,65535.0000,44884.2000,43431.6000,0.0000,0.0000,0.0000,
536,628.45,15912.09,-15912.09,1440.4000,65535.0000,44298.2000,42857.8000,0.0000,0.0000,0.0000,
537,628.92,15900.29,-15900.29,1443.2000,65535.0000,44546.8000,43103.6000,0.0000,0.0000,0.0000,
538,629.39,15888.52,-15888.52,1435.6000,65535.0000,44833.0000,43397.4000,0.0000,0.0000,0.0000,
539,629.85,15876.78,-15876.78,1447.6000,65535.0000,44741.4000,43293.8000,0.0000,0.0000,0.0000,
540,630.32,15865.05,-15865.05,1447.2000,65535.0000,44711.6000,43264.4000,0.0000,0.0000,0.0000,
541,630.78,15853.35,-15853.35,1455.2000,65535.0000,44858.8000,43403.6000,0.0000,0.0000,0.0000,
542,631.25,15841.67,-15841.67,1449.0000,65535.0000,44442.8000,42993.8000,0.0000,0.0000,0.0000,
543,631.71,15830.01,-15830.01,1438.2000,65535.0000,44933.2000,43495.0000,0.0000,0.0000,0.0000,
544,632.18,15818.37,-15818.37,1438.0000,65535.0000,44631.4000,43193.4000,0.0000,0.0000,0.0000,
545,632.64,15806.76,-15806.76,1450.8000,65535.0000,44425.6000,42974.8000,0.0000,0.0000,0.0000,
546,633.10,15795.17,-15795.17,1456.2000,65535.0000,44363.8000,42907.6000,0.0000,0.0000,0.0000,
547,633.57,15783.60,-15783.60,1456.8000,65535.0000,44438.0000,42981.2000,0.0000,0.0000,0.0000,
548,634.03,15772.06,-15772.06,1459.6000,65535.0000,44524.0000,43064.4000,0.0000,0.0000,0.0000,
549,634.50,15760.53,-15760.53,1422.0000,65535.0000,44129.2000,42707.2000,0.0000,0.0000,0.0000,
550,634.96,15749.03,-15749.03,1427.6000,65535.0000,44224.4000,42796.8000,0.0000,0.0000,0.0000,
551,635.42,15737.55,-15737.55,1456.6000,65535.0000,43802.2000,42345.6000,0.0000,0.0000,0.0000,
552,635.89,15726.09,-15726.09,1439.4000,65535.0000,43759.6000,42320.2000,0.0000,0.0000,0.0000,
553,636.35,15714.65,-15714.65,1446.6000,65535.0000,43604.2000,42157.6000,0.0000,0.0000,0.0000,
554,636.81,15703.24,-15703.24,1435.0000,65535.0000,44071.0000,42636.0000,0.0000,0.0000,0.0000,
555,637.27,15691.85,-15691.85,1455.8000,65535.0000,44012.2000,42556.4000,0.0000,0.0000,0.0000,
556,637.74,15680.47,-15680.47,1445.6000,65535.0000,43920.8000,42475.2000,0.0000,0.0000,0.0000,
557,638.20,15669.12,-15669.12,1434.8000,65535.0000,43706.0000,42271.2000,0.0000,0.0000,0.0000,
558,638.66,15657.80,-15657.80,1437.2000,65535.0000,43720.2000,42283.0000,0.0000,0.0000,0.0000,
559,639.12,15646.49,-15646.49,1448.6000,65535.0000,43991.8000,42543.2000,0.0000,0.0000,0.0000,
560,639.58,15635.20,-15635.20,1462.2000,65535.0000,44203.4000,42741.2000,0.0000,0.0000,0.0000,
561,640.04,15623.94,-15623.94,1428.4000,65535.0000,44344.0000,42915.6000,0.0000,0.0000,0.0000,
562,640.50,15612.70,-15612.70,1416.4000,65535.0000,44126.0000,42709.6000,0.0000,0.0000,0.0000,
563,640.97,15601.48,-15601.48,1425.0000,65535.0000,44019.8000,42594.8000,0.0000,0.0000,0.0000,
564,641.43,15590.28,-15590.28,1416.8000,65535.0000,44119.2000,42702.4000,0.0000,0.0000,0.0000,
565,641.89,15579.10,-15579.10,1429.0000,65535.0000,44064.6000,42635.6000,0.0000,0.0000,0.0000,
566,642.35,15567.94,-15567.94,1443.2000,65535.0000,43927.6000,42484.4000,0.0000,0.0000,0.0000,
567,642.81,15556.80,-15556.80,1436.6000,65535.0000,43371.6000,41935.0000,0.0000,0.0000,0.0000,
568,643.27,15545.69,-15545.69,1445.8000,65535.0000,43529.6000,42083.8000,0.0000,0.0000,0.0000,
569,643.72,15534.59,-15534.59,1438.0000,65535.0000,43852.2000,42414.2000,0.0000,0.0000,0.0000,
570,644.18,15523.52,-15523.52,1451.4000,65535.0000,43865.0000,42413.6000,0.0000,0.0000,0.0000,
571,644.64,15512.46,-15512.46,1453.2000,65535.0000,43837.0000,42383.8000,0.0000,0.0000,0.0000,
572,645.10,15501.43,-15501.43,1419.2000,65535.0000,43919.6000,42500.4000,0.0000,0.0000,0.0000,
573,645.56,15490.42,-15490.42,1436.2000,65535.0000,43734.0000,42297.8000,0.0000,0.0000,0.0000,
574,646.02,15479.43,-15479.43,1436.4000,65535.0000,43717.8000,42281.4000,0.0000,0.0000,0.0000,
575,646.48,15468.46,-15468.46,1429.4000,65535.0000,43633.4000,42204.0000,0.0000,0.0000,0.0000,
576,646.93,15457.51,-15457.51,1443.8000,65535.0000,43691.8000,42248.0000,0.0000,0.0000,0.0000,
577,647.39,15446.58,-15446.58,1426.6000,65535.0000,43807.0000,42380.4000,0.0000,0.0000,0.0000,
578,647.85,15435.67,-15435.67,1434.2000,65535.0000,43835.2000,42401.0000,0.0000,0.0000,0.0000,
579,648.31,15424.78,-15424.78,1449.0000,65535.0000,43866.8000,42417.8000,0.0000,0.0000,0.0000,
580,648.76,15413.91,-15413.91,1432.4000,65535.0000,44138.6000,42706.2000,0.0000,0.0000,0.0000,
581,649.22,15403.07,-15403.07,1468.2000,65535.0000,44102.4000,42634.2000,0.0000,0.0000,0.0000,
582,649.68,15392.24,-15392.24,1441.4000,65535.0000,43575.0000,42133.6000,0.0000,0.0000,0.0000,
583,650.13,15381.43,-15381.43,1428.8000,65535.0000,43673.2000,42244.4000,0.0000,0.0000,0.0000,
584,650.59,15370.64,-15370.64,1450.2000,65535.0000,43804.6000,42354.4000,0.0000,0.0000,0.0000,
585,651.05,15359.88,-15359.88,1428.2000,65535.0000,43531.0000,42102.8000,0.0000,0.0000,0.0000,
586,651.50,15349.13,-15349.13,1443.8000,65535.0000,43965.2000,42521.4000,0.0000,0.0000,0.0000,
587,651.96,15338.40,-15338.40,1445.6000,65535.0000,44024.2000,42578.6000,0.0000,0.0000,0.0000,
588,652.41,15327.69,-15327.69,1453.0000,65535.0000,43876.8000,42423.8000,0.0000,0.0000,0.0000,
589,652.87,15317.01,-15317.01,1419.0000,65535.0000,43584.8000,42165.8000,0.0000,0.0000,0.0000,
590,653.32,15306.34,-15306.34,1436.4000,65535.0000,43441.8000,42005.4000,0.0000,0.0000,0.0000,
591,653.78,15295.69,-15295.69,1443.4000,65535.0000,43875.2000,42431.8000,0.0000,0.0000,0.0000,
592,654.23,15285.06,-15285.06,1432.4000,65535.0000,44268.4000,42836.0000,0.0000,0.0000,0.0000,
593,654.69,15274.45,-15274.45,1423.4000,65535.0000,44279.8000,42856.4000,0.0000,0.0000,0.0000,
594,655.14,15263.86,-15263.86,1415.2000,65535.0000,44604.4000,43189.2000,0.0000,0.0000,0.0000,
595,655.60,15253.29,-15253.29,1414.6000,65535.0000,44935.8000,43521.2000,0.0000,0.0000,0.0000,
596,656.05,15242.74,-15242.74,1427.6000,65535.0000,44832.0000,43404.4000,0.0000,0.0000,0.0000,
597,656.50,15232.21,-15232.21,1437.2000,65535.0000,44641.0000,43203.8000,0.0000,0.0000,0.0000,
598,656.96,15221.70,-15221.70,1443.0000,65535.0000,44961.6000,43518.6000,0.0000,0.0000,0.0000,
599,657.41,15211.21,-15211.21,1445.4000,65535.0000,44967.0000,43521.6000,0.0000,0.0000,0.0000,
600,657.86,15200.74,-15200.74,1449.4000,65535.0000,44515.8000,43066.4000,0.0000,0.0000,0.0000,
601,658.32,15190.29,-15190.29,1432.6000,65535.0000,44560.0000,43127.4000,0.0000,0.0000,0.0000,
602,658.77,15179.85,-15179.85,1424.8000,65535.0000,44349.2000,42924.4000,0.0000,0.0000,0.0000,
603,659.22,15169.44,-15169.44,1426.4000,65535.0000,44243.8000,42817.4000,0.0000,0.0000,0.0000,
604,659.67,15159.04,-15159.04,1452.6000,65535.0000,44609.2000,43156.6000,0.0000,0.0000,0.0000,
605,660.12,15148.66,-15148.66,1452.8000,65535.0000,44292.8000,42840.0000,0.0000,0.0000,0.0000,
606,660.58,15138.31,-15138.31,1422.6000,65535.0000,44430.2000,43007.6000,0.0000,0.0000,0.0000,
607,661.03,15127.97,-15127.97,1436.4000,65535.0000,44331.4000,42895.0000,0.0000,0.0000,0.0000,
608,661.48,15117.65,-15117.65,1484.2000,65535.0000,44434.4000,42950.2000,0.0000,0.0000,0.0000,
609,661.93,15107.35,-15107.35,1452.0000,65535.0000,44506.6000,43054.6000,0.0000,0.0000,0.0000,
610,662.38,15097.07,-15097.07,1443.8000,65535.0000,44616.0000,43172.2000,0.0000,0.0000,0.0000,
611,662.83,15086.80,-15086.80,1409.4000,65535.0000,44459.8000,43050.4000,0.0000,0.0000,0.0000,
612,663.28,15076.56,-15076.56,1447.6000,65535.0000,44773.0000,43325.4000,0.0000,0.0000,0.0000,
613,663.73,15066.33,-15066.33,1455.2000,65535.0000,44924.0000,43468.8000,0.0000,0.0000,0.0000,
614,664.18,15056.12,-15056.12,1424.6000,65535.0000,44879.6000,43455.0000,0.0000,0.0000,0.0000,
615,664.63,15045.93,-15045.93,1449.4000,65535.0000,45266.0000,43816.6000,0.0000,0.0000,0.0000,
616,665.08,15035.76,-15035.76,1452.8000,65535.0000,44492.6000,43039.8000,0.0000,0.0000,0.0000,
617,665.53,15025.61,-15025.61,1445.6000,65535.0000,44936.8000,43491.2000,0.0000,0.0000,0.0000,
618,665.98,15015.48,-15015.48,1438.6000,65535.0000,44559.4000,43120.8000,0.0000,0.0000,0.0000,
619,666.43,15005.36,-15005.36,1441.4000,65535.0000,44622.6000,43181.2000,0.0000,0.0000,0.0000,
620,666.88,14995.27,-14995.27,1450.2000,65535.0000,44849.4000,43399.2000,0.0000,0.0000,0.0000,
621,667.33,14985.19,-14985.19,1450.4000,65535.0000,44668.6000,43218.2000,0.0000,0.0000,0.0000,
622,667.77,14975.13,-14975.13,1458.0000,65535.0000,44725.0000,43267.0000,0.0000,0.0000,0.0000,
623,668.22,14965.09,-14965.09,1400.4000,65535.0000,44992.0000,43591.6000,0.0000,0.0000,0.0000,
624,668.67,14955.06,-14955.06,1448.6000,65535.0000,45429.6000,43981.0000,0.0000,0.0000,0.0000,
625,669.12,14945.06,-14945.06,1458.4000,65535.0000,45105.2000,43646.8000,0.0000,0.0000,0.0000,
626,669.56,14935.07,-14935.07,1448.0000,65535.0000,45059.8000,43611.8000,0.0000,0.0000,0.0000,
627,670.01,14925.10,-14925.10,1437.2000,65535.0000,45090.8000,43653.6000,0.0000,0.0000,0.0000,
628,670.46,14915.15,-14915.15,1446.2000,65535.0000,44895.6000,43449.4000,0.0000,0.0000,0.0000,
629,670.91,14905.22,-14905.22,1462.2000,65535.0000,45080.4000,43618.2000,0.0000,0.0000,0.0000,
630,671.35,14895.30,-14895.30,1456.8000,65535.0000,45423.6000,43966.8000,0.0000,0.0000,0.0000,
631,671.80,14885.40,-14885.40,1470.4000,65535.0000,45792.2000,44321.8000,0.0000,0.0000,0.0000,
632,672.25,14875.52,-14875.52,1419.4000,65535.0000,45406.6000,43987.2000,0.0000,0.0000,0.0000,
633,672.69,14865.66,-14865.66,1444.2000,65535.0000,45088.6000,43644.4000,0.0000,0.0000,0.0000,
634,673.14,14855.82,-14855.82,1437.2000,65535.0000,45042.2000,43605.0000,0.0000,0.0000,0.0000,
635,673.58,14845.99,-14845.99,1459.8000,65535.0000,45061.8000,43602.0000,0.0000,0.0000,0.0000,
636,674.03,14836.18,-14836.18,1435.2000,65535.0000,44624.8000,43189.6000,0.0000,0.0000,0.0000,
637,674.47,14826.39,-14826.39,1441.0000,65535.0000,44507.0000,43066.0000,0.0000,0.0000,0.0000,
638,674.92,14816.61,-14816.61,1460.4000,65535.0000,44251.0000,42790.6000,0.0000,0.0000,0.0000,
639,675.36,14806.86,-14806.86,1442.6000,65535.0000,43951.8000,42509.2000,0.0000,0.0000,0.0000,
640,675.81,14797.12,-14797.12,1450.6000,65535.0000,44069.4000,42618.8000,0.0000,0.0000,0.0000,
641,676.25,14787.40,-14787.40,1456.6000,65535.0000,43955.2000,42498.6000,0.0000,0.0000,0.0000,
642,676.70,14777.69,-14777.69,1451.4000,65535.0000,44359.8000,42908.4000,0.0000,0.0000,0.0000,
643,677.14,14768.01,-14768.01,1435.6000,65535.0000,44455.6000,43020.0000,0.0000,0.0000,0.0000,
644,677.58,14758.34,-14758.34,1435.6000,65535.0000,44440.8000,43005.2000,0.0000,0.0000,0.0000,
645,678.03,14748.68,-14748.68,1432.6000,65535.0000,43911.6000,42479.0000,0.0000,0.0000,0.0000,
646,678.47,14739.05,-14739.05,1435.0000,65535.0000,44212.2000,42777.2000,0.0000,0.0000,0.0000,
647,678.91,14729.43,-14729.43,1456.4000,65535.0000,44456.6000,43000.2000,0.0000,0.0000,0.0000,
648,679.36,14719.83,-14719.83,1419.8000,65535.0000,44582.4000,43162.6000,0.0000,0.0000,0.0000,
649,679.80,14710.24,-14710.24,1453.0000,65535.0000,44247.6000,42794.6000,0.0000,0.0000,0.0000,
650,680.24,14700.68,-14700.68,1441.8000,65535.0000,43919.8000,42478.0000,0.0000,0.0000,0.0000,
651,680.68,14691.13,-14691.13,1442.4000,65535.0000,44024.8000,42582.4000,0.0000,0.0000,0.0000,
652,681.12,14681.59,-14681.59,1461.6000,65535.0000,43893.8000,42432.2000,0.0000,0.0000,0.0000,
653,681.57,14672.08,-14672.08,1447.2000,65535.0000,43280.8000,41833.6000,0.0000,0.0000,0.0000,
654,682.01,14662.58,-14662.58,1425.4000,65535.0000,43915.8000,42490.4000,0.0000,0.0000,0.0000,
655,682.45,14653.09,-14653.09,1438.0000,65535.0000,43872.6000,42434.6000,0.0000,0.0000,0.0000,
656,682.89,14643.63,-14643.63,1427.4000,65535.0000,43656.2000,42228.8000,0.0000,0.0000,0.0000,
657,683.33,14634.18,-14634.18,1435.2000,65535.0000,43769.4000,42334.2000,0.0000,0.0000,0.0000,
658,683.77,14624.75,-14624.75,1463.2000,65535.0000,43677.4000,42214.2000,0.0000,0.0000,0.0000,
659,684.21,14615.33,-14615.33,1454.2000,65535.0000,43409.6000,41955.4000,0.0000,0.0000,0.0000,
660,684.65,14605.93,-14605.93,1456.6000,65535.0000,42924.6000,41468.0000,0.0000,0.0000,0.0000,
661,685.09,14596.55,-14596.55,1424.4000,65535.0000,42816.2000,41391.8000,0.0000,0.0000,0.0000,
662,685.53,14587.18,-14587.18,1421.6000,65535.0000,42880.4000,41458.8000,0.0000,0.0000,0.0000,
663,685.97,14577.83,-14577.83,1418.6000,65535.0000,42810.8000,41392.2000,0.0000,0.0000,0.0000,
664,686.41,14568.50,-14568.50,1414.0000,65535.0000,42762.6000,41348.6000,0.0000,0.0000,0.0000,
665,686.85,14559.18,-14559.18,1446.4000,65535.0000,42466.8000,41020.4000,0.0000,0.0000,0.0000,
666,687.29,14549.88,-14549.88,1423.2000,65535.0000,42298.4000,40875.2000,0.0000,0.0000,0.0000,
667,687.73,14540.60,-14540.60,1429.4000,65535.0000,42406.4000,40977.0000,0.0000,0.0000,0.0000,
668,688.17,14531.33,-14531.33,1436.6000,65535.0000,42532.8000,41096.2000,0.0000,0.0000,0.0000,
669,688.61,14522.08,-14522.08,1463.0000,65535.0000,42601.0000,41138.0000,0.0000,0.0000,0.0000,
670,689.04,14512.84,-14512.84,1431.2000,65535.0000,42509.0000,41077.8000,0.0000,0.0000,0.0000,
671,689.48,14503.63,-14503.63,1449.8000,65535.0000,42164.4000,40714.6000,0.0000,0.0000,0.0000,
672,689.92,14494.42,-14494.42,1432.4000,65535.0000,42275.2000,40842.8000,0.0000,0.0000,0.0000,
673,690.36,14485.24,-14485.24,1432.4000,65535.0000,42289.2000,40856.8000,0.0000,0.0000,0.0000,
674,690.80,14476.06,-14476.06,1434.2000,65535.0000,42144.8000,40710.6000,0.0000,0.0000,0.0000,
675,691.23,14466.91,-14466.91,1453.6000,65535.0000,41937.4000,40483.8000,0.0000,0.0000,0.0000,
676,691.67,14457.77,-14457.77,1433.0000,65535.0000,41698.4000,40265.4000,0.0000,0.0000,0.0000,
677,692.11,14448.65,-14448.65,1418.2000,65535.0000,42070.0000,40651.8000,0.0000,0.0000,0.0000,
678,692.54,14439.54,-14439.54,1433.6000,65535.0000,41797.8000,40364.2000,0.0000,0.0000,0.0000,
679,692.98,14430.45,-14430.45,1446.6000,65535.0000,41617.8000,40171.2000,0.0000,0.0000,0.0000,
680,693.42,14421.37,-14421.37,1439.8000,65535.0000,41194.4000,39754.6000,0.0000,0.0000,0.0000,
681,693.85,14412.31,-14412.31,1434.2000,65535.0000,41199.8000,39765.6000,0.0000,0.0000,0.0000,
682,694.29,14403.27,-14403.27,1448.8000,65535.0000,40898.0000,39449.2000,0.0000,0.0000,0.0000,
683,694.72,14394.24,-14394.24,1436.4000,65535.0000,40645.6000,39209.2000,0.0000,0.0000,0.0000,
684,695.16,14385.23,-14385.23,1433.6000,65535.0000,40542.8000,39109.2000,0.0000,0.0000,0.0000,
685,695.59,14376.23,-14376.23,1439.6000,65535.0000,40687.6000,39248.0000,0.0000,0.0000,0.0000,
686,696.03,14367.25,-14367.25,1432.4000,65535.0000,40554.6000,39122.2000,0.0000,0.0000,0.0000,
687,696.46,14358.29,-14358.29,1433.0000,65535.0000,40247.0000,38814.0000,0.0000,0.0000,0.0000,
688,696.90,14349.34,-14349.34,1429.6000,65535.0000,40104.0000,38674.4000,0.0000,0.0000,0.0000,
689,697.33,14340.40,-14340.40,1439.0000,65535.0000,40413.0000,38974.0000,0.0000,0.0000,0.0000,
690,697.76,14331.48,-14331.48,1419.6000,65535.0000,40309.8000,38890.2000,0.0000,0.0000,0.0000,
691,698.20,14322.58,-14322.58,1437.6000,65535.0000,40172.8000,38735.2000,0.0000,0.0000,0.0000,
692,698.63,14313.69,-14313.69,1431.2000,65535.0000,39808.8000,38377.6000,0.0000,0.0000,0.0000,
693,699.07,14304.82,-14304.82,1415.6000,65535.0000,39814.0000,38398.4000,0.0000,0.0000,0.0000,
694,699.50,14295.96,-14295.96,1450.0000,65535.0000,39806.4000,38356.4000,0.0000,0.0000,0.0000,
695,699.93,14287.12,-14287.12,1455.8000,65535.0000,39801.0000,38345.2000,0.0000,0.0000,0.0000,
696,700.36,14278.29,-14278.29,1416.4000,65535.0000,39526.2000,38109.8000,0.0000,0.0000,0.0000,
697,700.80,14269.48,-14269.48,1431.2000,65535.0000,39185.0000,37753.8000,0.0000,0.0000,0.0000,
698,701.23,14260.68,-14260.68,1425.0000,65535.0000,39147.6000,37722.6000,0.0000,0.0000,0.0000,
699,701.66,14251.90,-14251.90,1424.0000,65535.0000,39424.8000,38000.8000,0.0000,0.0000,0.0000,
700,702.09,14243.13,-14243.13,1415.8000,65535.0000,39180.2000,37764.4000,0.0000,0.0000,0.0000,
701,702.52,14234.38,-14234.38,1425.8000,65535.0000,39186.2000,37760.4000,0.0000,0.0000,0.0000,
702,702.96,14225.64,-14225.64,1454.2000,65535.0000,39226.2000,37772.0000,0.0000,0.0000,0.0000,
703,703.39,14216.92,-14216.92,1427.0000,65535.0000,39320.2000,37893.2000,0.0000,0.0000,0.0000,
704,703.82,14208.21,-14208.21,1415.0000,65535.0000,39377.2000,37962.2000,0.0000,0.0000,0.0000,
705,704.25,14199.52,-14199.52,1465.8000,65535.0000,39346.0000,37880.2000,0.0000,0.0000,0.0000,
706,704.68,14190.84,-14190.84,1452.8000,65535.0000,39157.8000,37705.0000,0.0000,0.0000,0.0000,
707,705.11,14182.18,-14182.18,1435.0000,65535.0000,38738.4000,37303.4000,0.0000,0.0000,0.0000,
708,705.54,14173.53,-14173.53,1437.8000,65535.0000,38602.4000,37164.6000,0.0000,0.0000,0.0000,
709,705.97,14164.90,-14164.90,1442.8000,65535.0000,38522.0000,37079.2000,0.0000,0.0000,0.0000,
710,706.40,14156.28,-14156.28,1438.4000,65535.0000,38333.6000,36895.2000,0.0000,0.0000,0.0000,
711,706.83,14147.68,-14147.68,1429.0000,65535.0000,38491.6000,37062.6000,0.0000,0.0000,0.0000,
712,707.26,14139.09,-14139.09,1448.8000,65535.0000,38375.4000,36926.6000,0.0000,0.0000,0.0000,
713,707.69,14130.52,-14130.52,1436.0000,65535.0000,38296.2000,36860.2000,0.0000,0.0000,0.0000,
714,708.12,14121.96,-14121.96,1461.2000,65535.0000,38106.6000,36645.4000,0.0000,0.0000,0.0000,
715,708.55,14113.42,-14113.42,1444.0000,65535.0000,38098.0000,36654.0000,0.0000,0.0000,0.0000,
716,708.97,14104.88,-14104.88,1446.6000,65535.0000,38113.6000,36667.0000,0.0000,0.0000,0.0000,
717,709.40,14096.37,-14096.37,1428.0000,65535.0000,38284.6000,36856.6000,0.0000,0.0000,0.0000,
718,709.83,14087.87,-14087.87,1425.2000,65535.0000,38319.2000,36894.0000,0.0000,0.0000,0.0000,
719,710.26,14079.38,-14079.38,1416.8000,65535.0000,37987.2000,36570.4000,0.0000,0.0000,0.0000,
720,710.69,14070.91,-14070.91,1420.8000,65535.0000,38254.4000,36833.6000,0.0000,0.0000,0.0000,
721,711.11,14062.45,-14062.45,1439.2000,65535.0000,37871.8000,36432.6000,0.0000,0.0000,0.0000,
722,711.54,14054.01,-14054.01,1429.0000,65535.0000,37759.8000,36330.8000,0.0000,0.0000,0.0000,
723,711.97,14045.58,-14045.58,1428.0000,65535.0000,37679.4000,36251.4000,0.0000,0.0000,0.0000,
724,712.39,14037.16,-14037.16,1459.2000,65535.0000,37604.4000,36145.2000,0.0000,0.0000,0.0000,
725,712.82,14028.76,-14028.76,1436.6000,65535.0000,37384.0000,35947.4000,0.0000,0.0000,0.0000,
726,713.25,14020.38,-14020.38,1442.2000,65535.0000,37454.4000,36012.2000,0.0000,0.0000,0.0000,
727,713.67,14012.00,-14012.00,1440.0000,65535.0000,37399.6000,35959.6000,0.0000,0.0000,0.0000,
728,714.10,14003.64,-14003.64,1446.6000,65535.0000,37214.6000,35768.0000,0.0000,0.0000,0.0000,
729,714.53,13995.30,-13995.30,1456.4000,65535.0000,37271.6000,35815.2000,0.0000,0.0000,0.0000,
730,714.95,13986.97,-13986.97,1450.6000,65535.0000,37472.2000,36021.6000,0.0000,0.0000,0.0000,
731,715.38,13978.65,-13978.65,1425.4000,65535.0000,37459.6000,36034.2000,0.0000,0.0000,0.0000,
732,715.80,13970.35,-13970.35,1451.2000,65535.0000,36848.6000,35397.4000,0.0000,0.0000,0.0000,
733,716.23,13962.06,-13962.06,1426.0000,65535.0000,37264.2000,35838.2000,0.0000,0.0000,0.0000,
734,716.65,13953.79,-13953.79,1446.0000,65535.0000,37411.4000,35965.4000,0.0000,0.0000,0.0000,
735,717.08,13945.53,-13945.53,1442.6000,65535.0000,37115.2000,35672.6000,0.0000,0.0000,0.0000,
736,717.50,13937.28,-13937.28,1458.4000,65535.0000,37450.2000,35991.8000,0.0000,0.0000,0.0000,
737,717.92,13929.05,-13929.05,1450.2000,65535.0000,37466.4000,36016.2000,0.0000,0.0000,0.0000,
738,718.35,13920.83,-13920.83,1436.2000,65535.0000,36854.4000,35418.2000,0.0000,0.0000,0.0000,
739,718.77,13912.63,-13912.63,1447.0000,65535.0000,37064.0000,35617.0000,0.0000,0.0000,0.0000,
740,719.20,13904.43,-13904.43,1441.0000,65535.0000,37147.0000,35706.0000,0.0000,0.0000,0.0000,
741,719.62,13896.26,-13896.26,1437.6000,65535.0000,37287.4000,35849.8000,0.0000,0.0000,0.0000,
742,720.04,13888.09,-13888.09,1417.2000,65535.0000,37461.2000,36044.0000,0.0000,0.0000,0.0000,
743,720.46,13879.94,-13879.94,1426.6000,65535.0000,37540.6000,36114.0000,0.0000,0.0000,0.0000,
744,720.89,13871.81,-13871.81,1434.8000,65535.0000,37460.0000,36025.2000,0.0000,0.0000,0.0000,
745,721.31,13863.68,-13863.68,1419.8000,65535.0000,37234.4000,35814.6000,0.0000,0.0000,0.0000,
746,721.73,13855.57,-13855.57,1431.8000,65535.0000,36989.4000,35557.6000,0.0000,0.0000,0.0000,
747,722.15,13847.48,-13847.48,1436.8000,65535.0000,37096.4000,35659.6000,0.0000,0.0000,0.0000,
748,722.57,13839.39,-13839.39,1439.2000,65535.0000,36976.0000,35536.8000,0.0000,0.0000,0.0000,
749,723.00,13831.33,-13831.33,1437.4000,65535.0000,36820.6000,35383.2000,0.0000,0.0000,0.0000,
750,723.42,13823.27,-13823.27,1437.0000,65535.0000,36916.6000,35479.6000,0.0000,0.0000,0.0000,
751,723.84,13815.23,-13815.23,1464.4000,65535.0000,36887.2000,35422.8000,0.0000,0.0000,0.0000,
752,724.26,13807.20,-13807.20,1422.4000,65535.0000,37010.4000,35588.0000,0.0000,0.0000,0.0000,
753,724.68,13799.18,-13799.18,1422.4000,65535.0000,36689.0000,35266.6000,0.0000,0.0000,0.0000,
754,725.10,13791.18,-13791.18,1431.6000,65535.0000,36821.2000,35389.6000,0.0000,0.0000,0.0000,
755,725.52,13783.19,-13783.19,1438.4000,65535.0000,36729.4000,35291.0000,0.0000,0.0000,0.0000,
756,725.94,13775.22,-13775.22,1417.2000,65535.0000,36392.6000,34975.4000,0.0000,0.0000,0.0000,
757,726.36,13767.26,-13767.26,1437.6000,65535.0000,36343.4000,34905.8000,0.0000,0.0000,0.0000,
758,726.78,13759.31,-13759.31,1458.6000,65535.0000,36553.8000,35095.2000,0.0000,0.0000,0.0000,
759,727.20,13751.37,-13751.37,1418.8000,65535.0000,36472.4000,35053.6000,0.0000,0.0000,0.0000,
760,727.62,13743.45,-13743.45,1411.0000,65535.0000,36142.4000,34731.4000,0.0000,0.0000,0.0000,
761,728.04,13735.54,-13735.54,1417.6000,65535.0000,36522.2000,35104.6000,0.0000,0.0000,0.0000,
762,728.46,13727.64,-13727.64,1433.4000,65535.0000,36214.4000,34781.0000,0.0000,0.0000,0.0000,
763,728.88,13719.76,-13719.76,1432.2000,65535.0000,36136.6000,34704.4000,0.0000,0.0000,0.0000,
764,729.29,13711.89,-13711.89,1428.6000,65535.0000,36454.8000,35026.2000,0.0000,0.0000,0.0000,
765,729.71,13704.03,-13704.03,1427.4000,65535.0000,36106.6000,34679.2000,0.0000,0.0000,0.0000,
766,730.13,13696.19,-13696.19,1430.6000,65535.0000,36153.0000,34722.4000,0.0000,0.0000,0.0000,
767,730.55,13688.35,-13688.35,1436.8000,65535.0000,36092.8000,34656.0000,0.0000,0.0000,0.0000,
768,730.97,13680.53,-13680.53,1418.0000,65535.0000,35915.0000,34497.0000,0.0000,0.0000,0.0000,
769,731.38,13672.73,-13672.73,1435.6000,65535.0000,35953.4000,34517.8000,0.0000,0.0000,0.0000,
770,731.80,13664.94,-13664.94,1440.4000,65535.0000,35870.6000,34430.2000,0.0000,0.0000,0.0000,
771,732.22,13657.16,-13657.16,1446.8000,65535.0000,35658.2000,34211.4000,0.0000,0.0000,0.0000,
772,732.63,13649.39,-13649.39,1429.0000,65535.0000,35508.2000,34079.2000,0.0000,0.0000,0.0000,
773,733.05,13641.63,-13641.63,1421.2000,65535.0000,35659.0000,34237.8000,0.0000,0.0000,0.0000,
774,733.47,13633.89,-13633.89,1443.0000,65535.0000,35819.4000,34376.4000,0.0000,0.0000,0.0000,
775,733.88,13626.16,-13626.16,1440.4000,65535.0000,35689.4000,34249.0000,0.0000,0.0000,0.0000,
776,734.30,13618.45,-13618.45,1428.8000,65535.0000,35533.2000,34104.4000,0.0000,0.0000,0.0000,
777,734.71,13610.74,-13610.74,1431.4000,65535.0000,35378.6000,33947.2000,0.0000,0.0000,0.0000,
778,735.13,13603.05,-13603.05,1423.0000,65535.0000,35579.8000,34156.8000,0.0000,0.0000,0.0000,
779,735.54,13595.37,-13595.37,1449.8000,65535.0000,35623.8000,34174.0000,0.0000,0.0000,0.0000,
780,735.96,13587.71,-13587.71,1411.4000,65535.0000,35774.4000,34363.0000,0.0000,0.0000,0.0000,
781,736.37,13580.05,-13580.05,1421.2000,65535.0000,35601.0000,34179.8000,0.0000,0.0000,0.0000,
782,736.79,13572.41,-13572.41,1447.2000,65535.0000,35472.8000,34025.6000,0.0000,0.0000,0.0000,
783,737.20,13564.78,-13564.78,1446.8000,65535.0000,35535.8000,34089.0000,0.0000,0.0000,0.0000,
784,737.62,13557.17,-13557.17,1440.4000,65535.0000,35758.8000,34318.4000,0.0000,0.0000,0.0000,
785,738.03,13549.56,-13549.56,1428.6000,65535.0000,35489.4000,34060.8000,0.0000,0.0000,0.0000,
786,738.44,13541.97,-13541.97,1432.0000,65535.0000,35596.0000,34164.0000,0.0000,0.0000,0.0000,
787,738.86,13534.39,-13534.39,1451.4000,65535.0000,35490.0000,34038.6000,0.0000,0.0000,0.0000,
788,739.27,13526.83,-13526.83,1456.0000,65535.0000,35429.2000,33973.2000,0.0000,0.0000,0.0000,
789,739.68,13519.27,-13519.27,1435.2000,65535.0000,35652.8000,34217.6000,0.0000,0.0000,0.0000,
790,740.10,13511.73,-13511.73,1432.8000,65535.0000,35441.8000,34009.0000,0.0000,0.0000,0.0000,
791,740.51,13504.20,-13504.20,1424.8000,65535.0000,35385.2000,33960.4000,0.0000,0.0000,0.0000,
792,740.92,13496.69,-13496.69,1447.6000,65535.0000,35301.4000,33853.8000,0.0000,0.0000,0.0000,
793,741.33,13489.18,-13489.18,1400.8000,65535.0000,34975.0000,33574.2000,0.0000,0.0000,0.0000,
794,741.75,13481.69,-13481.69,1428.0000,65535.0000,35413.8000,33985.8000,0.0000,0.0000,0.0000,
795,742.16,13474.21,-13474.21,1421.6000,65535.0000,35703.2000,34281.6000,0.0000,0.0000,0.0000,
796,742.57,13466.74,-13466.74,1445.8000,65535.0000,35063.0000,33617.2000,0.0000,0.0000,0.0000,
797,742.98,13459.28,-13459.28,1431.0000,65535.0000,34523.2000,33092.2000,0.0000,0.0000,0.0000,
798,743.39,13451.84,-13451.84,1411.0000,65535.0000,34723.2000,33312.2000,0.0000,0.0000,0.0000,
799,743.80,13444.40,-13444.40,1432.8000,65535.0000,34757.0000,33324.2000,0.0000,0.0000,0.0000,
800,744.21,13436.98,-13436.98,1442.8000,65535.0000,34488.2000,33045.4000,0.0000,0.0000,0.0000,
801,744.63,13429.58,-13429.58,1449.6000,65535.0000,34452.6000,33003.0000,0.0000,0.0000,0.0000,
802,745.04,13422.18,-13422.18,1446.8000,65535.0000,34474.0000,33027.2000,0.0000,0.0000,0.0000,
803,745.45,13414.79,-13414.79,1442.0000,65535.0000,34732.4000,33290.4000,0.0000,0.0000,0.0000,
804,745.86,13407.42,-13407.42,1438.6000,65535.0000,34920.6000,33482.0000,0.0000,0.0000,0.0000,
805,746.27,13400.06,-13400.06,1434.4000,65535.0000,34859.6000,33425.2000,0.0000,0.0000,0.0000,
806,746.67,13392.71,-13392.71,1453.6000,65535.0000,34917.6000,33464.0000,0.0000,0.0000,0.0000,
807,747.08,13385.38,-13385.38,1431.2000,65535.0000,34935.0000,33503.8000,0.0000,0.0000,0.0000,
808,747.49,13378.05,-13378.05,1434.6000,65535.0000,34644.2000,33209.6000,0.0000,0.0000,0.0000,
809,747.90,13370.74,-13370.74,1422.4000,65535.0000,34433.0000,33010.6000,0.0000,0.0000,0.0000,
810,748.31,13363.44,-13363.44,1421.2000,65535.0000,34570.8000,33149.6000,0.0000,0.0000,0.0000,
811,748.72,13356.15,-13356.15,1403.2000,65535.0000,34515.0000,33111.8000,0.0000,0.0000,0.0000,
812,749.13,13348.87,-13348.87,1433.2000,65535.0000,34362.6000,32929.4000,0.0000,0.0000,0.0000,
813,749.54,13341.60,-13341.60,1453.2000,65535.0000,34245.0000,32791.8000,0.0000,0.0000,0.0000,
814,749.94,13334.35,-13334.35,1439.2000,65535.0000,34298.8000,32859.6000,0.0000,0.0000,0.0000,
815,750.35,13327.10,-13327.10,1454.0000,65535.0000,34245.0000,32791.0000,0.0000,0.0000,0.0000,
816,750.76,13319.87,-13319.87,1431.8000,65535.0000,34155.8000,32724.0000,0.0000,0.0000,0.0000,
817,751.17,13312.65,-13312.65,1442.8000,65535.0000,33875.4000,32432.6000,0.0000,0.0000,0.0000,
818,751.57,13305.45,-13305.45,1447.8000,65535.0000,33898.8000,32451.0000,0.0000,0.0000,0.0000,
819,751.98,13298.25,-13298.25,1422.8000,65535.0000,33670.8000,32248.0000,0.0000,0.0000,0.0000,
820,752.39,13291.06,-13291.06,1452.4000,65535.0000,33805.6000,32353.2000,0.0000,0.0000,0.0000,
821,752.79,13283.89,-13283.89,1446.2000,65535.0000,33668.2000,32222.0000,0.0000,0.0000,0.0000,
822,753.20,13276.73,-13276.73,1440.8000,65535.0000,33536.0000,32095.2000,0.0000,0.0000,0.0000,
823,753.60,13269.58,-13269.58,1416.6000,65535.0000,33554.2000,32137.6000,0.0000,0.0000,0.0000,
824,754.01,13262.44,-13262.44,1448.2000,65535.0000,33614.2000,32166.0000,0.0000,0.0000,0.0000,
825,754.41,13255.31,-13255.31,1455.6000,65535.0000,33431.8000,31976.2000,0.0000,0.0000,0.0000,
826,754.82,13248.19,-13248.19,1445.2000,65535.0000,33268.6000,31823.4000,0.0000,0.0000,0.0000,
827,755.22,13241.09,-13241.09,1458.6000,65535.0000,33150.0000,31691.4000,0.0000,0.0000,0.0000,
828,755.63,13233.99,-13233.99,1437.2000,65535.0000,33093.8000,31656.6000,0.0000,0.0000,0.0000,
829,756.03,13226.91,-13226.91,1436.4000,65535.0000,32535.6000,31099.2000,0.0000,0.0000,0.0000,
830,756.44,13219.84,-13219.84,1435.0000,65535.0000,32869.4000,31434.4000,0.0000,0.0000,0.0000,
831,756.84,13212.78,-13212.78,1427.8000,65535.0000,32837.8000,31410.0000,0.0000,0.0000,0.0000,
832,757.25,13205.73,-13205.73,1435.8000,65535.0000,32627.2000,31191.4000,0.0000,0.0000,0.0000,
833,757.65,13198.69,-13198.69,1419.8000,65535.0000,32291.8000,30872.0000,0.0000,0.0000,0.0000,
834,758.05,13191.67,-13191.67,1429.6000,65535.0000,32106.0000,30676.4000,0.0000,0.0000,0.0000,
835,758.46,13184.65,-13184.65,1456.8000,65535.0000,32194.8000,30738.0000,0.0000,0.0000,0.0000,
836,758.86,13177.65,-13177.65,1439.0000,65535.0000,32073.4000,30634.4000,0.0000,0.0000,0.0000,
837,759.26,13170.66,-13170.66,1441.6000,65535.0000,32012.4000,30570.8000,0.0000,0.0000,0.0000,
838,759.67,13163.67,-13163.67,1434.4000,65535.0000,31747.0000,30312.6000,0.0000,0.0000,0.0000,
839,760.07,13156.70,-13156.70,1434.8000,65535.0000,31946.6000,30511.8000,0.0000,0.0000,0.0000,
840,760.47,13149.74,-13149.74,1439.2000,65535.0000,31845.0000,30405.8000,0.0000,0.0000,0.0000,
841,760.87,13142.80,-13142.80,1441.2000,65535.0000,31574.4000,30133.2000,0.0000,0.0000,0.0000,
842,761.28,13135.86,-13135.86,1444.4000,65535.0000,31194.2000,29749.8000,0.0000,0.0000,0.0000,
843,761.68,13128.93,-13128.93,1447.8000,65535.0000,31214.8000,29767.0000,0.0000,0.0000,0.0000,
844,762.08,13122.02,-13122.02,1464.4000,65535.0000,31084.0000,29619.6000,0.0000,0.0000,0.0000,
845,762.48,13115.11,-13115.11,1406.8000,65535.0000,30916.0000,29509.2000,0.0000,0.0000,0.0000,
846,762.88,13108.22,-13108.22,1425.2000,65535.0000,31007.4000,29582.2000,0.0000,0.0000,0.0000,
847,763.28,13101.33,-13101.33,1434.2000,65535.0000,31203.4000,29769.2000,0.0000,0.0000,0.0000,
848,763.68,13094.46,-13094.46,1441.4000,65535.0000,31078.8000,29637.4000,0.0000,0.0000,0.0000,
849,764.08,13087.60,-13087.60,1434.4000,65535.0000,30876.0000,29441.6000,0.0000,0.0000,0.0000,
850,764.48,13080.75,-13080.75,1468.0000,65535.0000,30751.2000,29283.2000,0.0000,0.0000,0.0000,
851,764.88,13073.91,-13073.91,1443.0000,65535.0000,30798.8000,29355.8000,0.0000,0.0000,0.0000,
852,765.28,13067.08,-13067.08,1428.6000,65535.0000,30787.2000,29358.6000,0.0000,0.0000,0.0000,
853,765.68,13060.26,-13060.26,1449.2000,65535.0000,30662.0000,29212.8000,0.0000,0.0000,0.0000,
854,766.08,13053.45,-13053.45,1413.8000,65535.0000,30082.0000,28668.2000,0.0000,0.0000,0.0000,
855,766.48,13046.66,-13046.66,1437.2000,65535.0000,30245.0000,28807.8000,0.0000,0.0000,0.0000,
856,766.88,13039.87,-13039.87,1439.8000,65535.0000,30127.6000,28687.8000,0.0000,0.0000,0.0000,
857,767.28,13033.10,-13033.10,1418.0000,65535.0000,30034.2000,28616.2000,0.0000,0.0000,0.0000,
858,767.68,13026.33,-13026.33,1426.6000,65535.0000,30030.0000,28603.4000,0.0000,0.0000,0.0000,
859,768.07,13019.58,-13019.58,1468.0000,65535.0000,29944.6000,28476.6000,0.0000,0.0000,0.0000,
860,768.47,13012.83,-13012.83,1414.2000,65535.0000,29589.2000,28175.0000,0.0000,0.0000,0.0000,
861,768.87,13006.10,-13006.10,1438.8000,65535.0000,29520.0000,28081.2000,0.0000,0.0000,0.0000,
862,769.27,12999.38,-12999.38,1437.2000,65535.0000,29318.2000,27881.0000,0.0000,0.0000,0.0000,
863,769.66,12992.67,-12992.67,1438.4000,65535.0000,29259.4000,27821.0000,0.0000,0.0000,0.0000,
864,770.06,12985.96,-12985.96,1455.4000,65535.0000,29000.4000,27545.0000,0.0000,0.0000,0.0000,
865,770.46,12979.27,-12979.27,1449.0000,65535.0000,28842.4000,27393.4000,0.0000,0.0000,0.0000,
866,770.86,12972.59,-12972.59,1434.2000,65535.0000,28856.4000,27422.2000,0.0000,0.0000,0.0000,
867,771.25,12965.92,-12965.92,1432.2000,65535.0000,28933.6000,27501.4000,0.0000,0.0000,0.0000,
868,771.65,12959.26,-12959.26,1420.8000,65535.0000,28755.6000,27334.8000,0.0000,0.0000,0.0000,
869,772.04,12952.61,-12952.61,1452.4000,65535.0000,28435.2000,26982.8000,0.0000,0.0000,0.0000,
870,772.44,12945.98,-12945.98,1449.8000,65535.0000,28568.8000,27119.0000,0.0000,0.0000,0.0000,
871,772.84,12939.35,-12939.35,1439.4000,65535.0000,28534.2000,27094.8000,0.0000,0.0000,0.0000,
872,773.23,12932.73,-12932.73,1446.6000,65535.0000,28479.8000,27033.2000,0.0000,0.0000,0.0000,
873,773.63,12926.12,-12926.12,1416.8000,65535.0000,28508.4000,27091.6000,0.0000,0.0000,0.0000,
874,774.02,12919.52,-12919.52,1438.4000,65535.0000,28346.0000,26907.6000,0.0000,0.0000,0.0000,
875,774.42,12912.94,-12912.94,1429.8000,65535.0000,28109.8000,26680.0000,0.0000,0.0000,0.0000,
876,774.81,12906.36,-12906.36,1446.4000,65535.0000,28179.0000,26732.6000,0.0000,0.0000,0.0000,
877,775.21,12899.79,-12899.79,1454.8000,65535.0000,28053.8000,26599.0000,0.0000,0.0000,0.0000,
878,775.60,12893.24,-12893.24,1422.6000,65535.0000,27806.6000,26384.0000,0.0000,0.0000,0.0000,
879,775.99,12886.69,-12886.69,1442.6000,65535.0000,27700.8000,26258.2000,0.0000,0.0000,0.0000,
880,776.39,12880.15,-12880.15,1445.4000,65535.0000,27619.4000,26174.0000,0.0000,0.0000,0.0000,
881,776.78,12873.63,-12873.63,1423.0000,65535.0000,27289.4000,25866.4000,0.0000,0.0000,0.0000,
882,777.18,12867.11,-12867.11,1441.0000,65535.0000,27213.4000,25772.4000,0.0000,0.0000,0.0000,
883,777.57,12860.61,-12860.61,1444.8000,65535.0000,27156.6000,25711.8000,0.0000,0.0000,0.0000,
884,777.96,12854.11,-12854.11,1424.8000,65535.0000,27086.2000,25661.4000,0.0000,0.0000,0.0000,
885,778.35,12847.62,-12847.62,1421.0000,65535.0000,27049.2000,25628.2000,0.0000,0.0000,0.0000,
886,778.75,12841.15,-12841.15,1413.2000,65535.0000,27017.8000,25604.6000,0.0000,0.0000,0.0000,
887,779.14,12834.68,-12834.68,1437.4000,65535.0000,26841.8000,25404.4000,0.0000,0.0000,0.0000,
888,779.53,12828.23,-12828.23,1447.0000,65535.0000,27059.2000,25612.2000,0.0000,0.0000,0.0000,
889,779.92,12821.78,-12821.78,1438.8000,65535.0000,27106.6000,25667.8000,0.0000,0.0000,0.0000,
890,780.31,12815.35,-12815.35,1426.2000,65535.0000,26727.8000,25301.6000,0.0000,0.0000,0.0000,
891,780.71,12808.92,-12808.92,1422.4000,65535.0000,26652.6000,25230.2000,0.0000,0.0000,0.0000,
892,781.10,12802.50,-12802.50,1458.6000,65535.0000,26594.0000,25135.4000,0.0000,0.0000,0.0000,
893,781.49,12796.10,-12796.10,1432.2000,65535.0000,26651.0000,25218.8000,0.0000,0.0000,0.0000,
894,781.88,12789.70,-12789.70,1425.4000,65535.0000,26635.8000,25210.4000,0.0000,0.0000,0.0000,
895,782.27,12783.32,-12783.32,1421.8000,65535.0000,26347.2000,24925.4000,0.0000,0.0000,0.0000,
896,782.66,12776.94,-12776.94,1426.2000,65535.0000,26192.4000,24766.2000,0.0000,0.0000,0.0000,
897,783.05,12770.57,-12770.57,1422.8000,65535.0000,26137.8000,24715.0000,0.0000,0.0000,0.0000,
898,783.44,12764.22,-12764.22,1458.6000,65535.0000,25917.8000,24459.2000,0.0000,0.0000,0.0000,
899,783.83,12757.87,-12757.87,1420.8000,65535.0000,26011.0000,24590.2000,0.0000,0.0000,0.0000,
900,784.22,12751.53,-12751.53,1409.6000,65535.0000,25945.2000,24535.6000,0.0000,0.0000,0.0000,
901,784.61,12745.20,-12745.20,1436.4000,65535.0000,25736.4000,24300.0000,0.0000,0.0000,0.0000,
902,785.00,12738.89,-12738.89,1441.4000,65535.0000,25788.2000,24346.8000,0.0000,0.0000,0.0000,
903,785.39,12732.58,-12732.58,1434.6000,65535.0000,25395.6000,23961.0000,0.0000,0.0000,0.0000,
904,785.78,12726.28,-12726.28,1433.4000,65535.0000,25758.0000,24324.6000,0.0000,0.0000,0.0000,
905,786.16,12719.99,-12719.99,1444.8000,65535.0000,25696.0000,24251.2000,0.0000,0.0000,0.0000,
906,786.55,12713.71,-12713.71,1428.0000,65535.0000,25468.0000,24040.0000,0.0000,0.0000,0.0000,
907,786.94,12707.44,-12707.44,1425.6000,65535.0000,25456.6000,24031.0000,0.0000,0.0000,0.0000,
908,787.33,12701.18,-12701.18,1422.4000,65535.0000,25394.4000,23972.0000,0.0000,0.0000,0.0000,
909,787.72,12694.93,-12694.93,1426.4000,65535.0000,25512.0000,24085.6000,0.0000,0.0000,0.0000,
910,788.10,12688.69,-12688.69,1427.6000,65535.0000,25438.6000,24011.0000,0.0000,0.0000,0.0000,
911,788.49,12682.46,-12682.46,1423.4000,65535.0000,25179.0000,23755.6000,0.0000,0.0000,0.0000,
912,788.88,12676.24,-12676.24,1429.0000,65535.0000,25065.6000,23636.6000,0.0000,0.0000,0.0000,
913,789.26,12670.03,-12670.03,1418.4000,65535.0000,24892.8000,23474.4000,0.0000,0.0000,0.0000,
914,789.65,12663.83,-12663.83,1431.0000,65535.0000,24796.6000,23365.6000,0.0000,0.0000,0.0000,
915,790.04,12657.63,-12657.63,1443.0000,65535.0000,24817.6000,23374.6000,0.0000,0.0000,0.0000,
916,790.42,12651.45,-12651.45,1418.4000,65535.0000,24860.2000,23441.8000,0.0000,0.0000,0.0000,
917,790.81,12645.28,-12645.28,1427.0000,65535.0000,24780.2000,23353.2000,0.0000,0.0000,0.0000,
918,791.19,12639.11,-12639.11,1425.4000,65535.0000,24860.0000,23434.6000,0.0000,0.0000,0.0000,
919,791.58,12632.96,-12632.96,1425.0000,65535.0000,24636.4000,23211.4000,0.0000,0.0000,0.0000,
920,791.97,12626.81,-12626.81,1453.0000,65535.0000,24559.8000,23106.8000,0.0000,0.0000,0.0000,
921,792.35,12620.67,-12620.67,1442.2000,65535.0000,24410.8000,22968.6000,0.0000,0.0000,0.0000,
922,792.74,12614.55,-12614.55,1425.6000,65535.0000,24399.6000,22974.0000,0.0000,0.0000,0.0000,
923,793.12,12608.43,-12608.43,1461.0000,65535.0000,24367.2000,22906.2000,0.0000,0.0000,0.0000,
924,793.50,12602.32,-12602.32,1472.0000,65535.0000,24168.2000,22696.2000,0.0000,0.0000,0.0000,
925,793.89,12596.22,-12596.22,1449.2000,65535.0000,24405.2000,22956.0000,0.0000,0.0000,0.0000,
926,794.27,12590.13,-12590.13,1456.4000,65535.0000,24297.4000,22841.0000,0.0000,0.0000,0.0000,
927,794.66,12584.05,-12584.05,1458.4000,65535.0000,24224.2000,22765.8000,0.0000,0.0000,0.0000,
928,795.04,12577.98,-12577.98,1429.0000,65535.0000,24180.8000,22751.8000,0.0000,0.0000,0.0000,
929,795.42,12571.92,-12571.92,1409.8000,65535.0000,24339.4000,22929.6000,0.0000,0.0000,0.0000,
930,795.81,12565.86,-12565.86,1447.6000,65535.0000,24224.0000,22776.4000,0.0000,0.0000,0.0000,
931,796.19,12559.82,-12559.82,1448.0000,65535.0000,24177.6000,22729.6000,0.0000,0.0000,0.0000,
932,796.57,12553.78,-12553.78,1453.0000,65535.0000,24086.4000,22633.4000,0.0000,0.0000,0.0000,
933,796.96,12547.76,-12547.76,1438.2000,65535.0000,23899.2000,22461.0000,0.0000,0.0000,0.0000,
934,797.34,12541.74,-12541.74,1467.8000,65535.0000,23675.6000,22207.8000,0.0000,0.0000,0.0000,
935,797.72,12535.74,-12535.74,1445.6000,65535.0000,23707.6000,22262.0000,0.0000,0.0000,0.0000,
936,798.10,12529.74,-12529.74,1440.2000,65535.0000,23644.2000,22204.0000,0.0000,0.0000,0.0000,
937,798.48,12523.75,-12523.75,1457.4000,65535.0000,23847.6000,22390.2000,0.0000,0.0000,0.0000,
938,798.86,12517.77,-12517.77,1447.8000,65535.0000,23396.2000,21948.4000,0.0000,0.0000,0.0000,
939,799.25,12511.80,-12511.80,1427.0000,65535.0000,23402.4000,21975.4000,0.0000,0.0000,0.0000,
940,799.63,12505.83,-12505.83,1455.8000,65535.0000,23181.8000,21726.0000,0.0000,0.0000,0.0000,
941,800.01,12499.88,-12499.88,1442.4000,65535.0000,23492.8000,22050.4000,0.0000,0.0000,0.0000,
942,800.39,12493.94,-12493.94,1435.0000,65535.0000,23347.8000,21912.8000,0.0000,0.0000,0.0000,
943,800.77,12488.00,-12488.00,1454.0000,65535.0000,23198.4000,21744.4000,0.0000,0.0000,0.0000,
944,801.15,12482.08,-12482.08,1446.8000,65535.0000,23229.4000,21782.6000,0.0000,0.0000,0.0000,
945,801.53,12476.16,-12476.16,1428.8000,65535.0000,23052.8000,21624.0000,0.0000,0.0000,0.0000,
946,801.91,12470.25,-12470.25,1450.0000,65535.0000,22940.6000,21490.6000,0.0000,0.0000,0.0000,
947,802.29,12464.35,-12464.35,1426.4000,65535.0000,23019.0000,21592.6000,0.0000,0.0000,0.0000,
948,802.67,12458.46,-12458.46,1419.2000,65535.0000,22903.6000,21484.4000,0.0000,0.0000,0.0000,
949,803.05,12452.58,-12452.58,1430.4000,65535.0000,22757.0000,21326.6000,0.0000,0.0000,0.0000,
950,803.43,12446.71,-12446.71,1446.4000,65535.0000,22687.4000,21241.0000,0.0000,0.0000,0.0000,
951,803.80,12440.84,-12440.84,1456.6000,65535.0000,22622.6000,21166.0000,0.0000,0.0000,0.0000,
952,804.18,12434.99,-12434.99,1434.4000,65535.0000,22640.4000,21206.0000,0.0000,0.0000,0.0000,
953,804.56,12429.14,-12429.14,1406.0000,65535.0000,22579.6000,21173.6000,0.0000,0.0000,0.0000,
954,804.94,12423.30,-12423.30,1448.0000,65535.0000,22496.4000,21048.4000,0.0000,0.0000,0.0000,
955,805.32,12417.48,-12417.48,1437.6000,65535.0000,22603.6000,21166.0000,0.0000,0.0000,0.0000,
956,805.69,12411.66,-12411.66,1440.0000,65535.0000,22741.0000,21301.0000,0.0000,0.0000,0.0000,
957,806.07,12405.84,-12405.84,1406.4000,65535.0000,22630.0000,21223.6000,0.0000,0.0000,0.0000,
958,806.45,12400.04,-12400.04,1458.6000,65535.0000,22499.6000,21041.0000,0.0000,0.0000,0.0000,
959,806.83,12394.25,-12394.25,1424.6000,65535.0000,22617.4000,21192.8000,0.0000,0.0000,0.0000,
960,807.20,12388.46,-12388.46,1424.8000,65535.0000,22598.2000,21173.4000,0.0000,0.0000,0.0000,
961,807.58,12382.69,-12382.69,1432.6000,65535.0000,22729.4000,21296.8000,0.0000,0.0000,0.0000,
962,807.96,12376.92,-12376.92,1418.0000,65535.0000,22882.2000,21464.2000,0.0000,0.0000,0.0000,
963,808.33,12371.16,-12371.16,1455.4000,65535.0000,22739.2000,21283.8000,0.0000,0.0000,0.0000,
964,808.71,12365.41,-12365.41,1433.4000,65535.0000,22768.6000,21335.2000,0.0000,0.0000,0.0000,
965,809.08,12359.67,-12359.67,1434.2000,65535.0000,22534.4000,21100.2000,0.0000,0.0000,0.0000,
966,809.46,12353.93,-12353.93,1443.8000,65535.0000,22475.8000,21032.0000,0.0000,0.0000,0.0000,
967,809.83,12348.21,-12348.21,1435.6000,65535.0000,22532.2000,21096.6000,0.0000,0.0000,0.0000,
968,810.21,12342.49,-12342.49,1440.4000,65535.0000,22390.2000,20949.8000,0.0000,0.0000,0.0000,
969,810.58,12336.78,-12336.78,1414.4000,65535.0000,22312.8000,20898.4000,0.0000,0.0000,0.0000,
970,810.96,12331.08,-12331.08,1452.2000,65535.0000,22280.0000,20827.8000,0.0000,0.0000,0.0000,
971,811.33,12325.39,-12325.39,1425.0000,65535.0000,22166.6000,20741.6000,0.0000,0.0000,0.0000,
972,811.71,12319.71,-12319.71,1435.0000,65535.0000,22119.6000,20684.6000,0.0000,0.0000,0.0000,
973,812.08,12314.04,-12314.04,1447.2000,65535.0000,22108.0000,20660.8000,0.0000,0.0000,0.0000,
974,812.46,12308.37,-12308.37,1420.0000,65535.0000,22001.8000,20581.8000,0.0000,0.0000,0.0000,
975,812.83,12302.72,-12302.72,1433.0000,65535.0000,22003.6000,20570.6000,0.0000,0.0000,0.0000,
976,813.20,12297.07,-12297.07,1426.2000,65535.0000,22114.8000,20688.6000,0.0000,0.0000,0.0000,
977,813.58,12291.43,-12291.43,1449.4000,65535.0000,22021.8000,20572.4000,0.0000,0.0000,0.0000,
978,813.95,12285.79,-12285.79,1427.4000,65535.0000,22062.8000,20635.4000,0.0000,0.0000,0.0000,
979,814.32,12280.17,-12280.17,1436.6000,65535.0000,22004.6000,20568.0000,0.0000,0.0000,0.0000,
980,814.69,12274.56,-12274.56,1408.8000,65535.0000,21787.6000,20378.8000,0.0000,0.0000,0.0000,
981,815.07,12268.95,-12268.95,1432.4000,65535.0000,21631.8000,20199.4000,0.0000,0.0000,0.0000,
982,815.44,12263.35,-12263.35,1446.6000,65535.0000,21487.0000,20040.4000,0.0000,0.0000,0.0000,
983,815.81,12257.76,-12257.76,1441.6000,65535.0000,21292.0000,19850.4000,0.0000,0.0000,0.0000,
984,816.18,12252.18,-12252.18,1416.6000,65535.0000,21420.8000,20004.2000,0.0000,0.0000,0.0000,
985,816.55,12246.61,-12246.61,1414.4000,65535.0000,21477.2000,20062.8000,0.0000,0.0000,0.0000,
986,816.92,12241.04,-12241.04,1433.2000,65535.0000,21268.2000,19835.0000,0.0000,0.0000,0.0000,
987,817.29,12235.48,-12235.48,1427.8000,65535.0000,21347.8000,19920.0000,0.0000,0.0000,0.0000,
988,817.67,12229.94,-12229.94,1423.0000,65535.0000,21362.8000,19939.8000,0.0000,0.0000,0.0000,
989,818.04,12224.40,-12224.40,1406.2000,65535.0000,21341.0000,19934.8000,0.0000,0.0000,0.0000,
990,818.41,12218.86,-12218.86,1420.0000,65535.0000,21259.0000,19839.0000,0.0000,0.0000,0.0000,
991,818.78,12213.34,-12213.34,1432.0000,65535.0000,21195.4000,19763.4000,0.0000,0.0000,0.0000,
992,819.15,12207.82,-12207.82,1415.0000,65535.0000,21181.2000,19766.2000,0.0000,0.0000,0.0000,
993,819.52,12202.32,-12202.32,1433.8000,65535.0000,21174.0000,19740.2000,0.0000,0.0000,0.0000,
994,819.89,12196.82,-12196.82,1435.8000,65535.0000,21191.4000,19755.6000,0.0000,0.0000,0.0000,
995,820.26,12191.32,-12191.32,1438.4000,65535.0000,21320.2000,19881.8000,0.0000,0.0000,0.0000,
996,820.62,12185.84,-12185.84,1420.0000,65535.0000,21234.8000,19814.8000,0.0000,0.0000,0.0000,
997,820.99,12180.37,-12180.37,1427.8000,65535.0000,21069.0000,19641.2000,0.0000,0.0000,0.0000,
998,821.36,12174.90,-12174.90,1421.6000,65535.0000,21009.0000,19587.4000,0.0000,0.0000,0.0000,
999,821.73,12169.44,-12169.44,1401.0000,65535.0000,21012.0000,19611.0000,0.0000,0.0000,0.0000,
