File Version;BWSpec4.03_33_C
Date,2026-04-16 15:09:32
title,ZMYE
model,BRC1K
c code,ZMYE
operator,
port1,0
baud1,3
pixel_start,0
pixel_end,999
step,1
units,1
bkcolor,16777215
show_mode,3
data_mode,0
pixel_mode,0
intigration times(ms),8000
average number,5
time_multiply,1
spectrometer_type ,71
yaxis,1
yaxis_min,-494
yaxis_max,65535
xaxis,0
xaxis_min,0
xaxis_max,999
irrands_DispWLMin,100
irrands_DispWLMax,1000
yaxis_min_6,0
yaxis_max_6,0
irradiance_unit,0
Color_Data_Flag,0
Color_StartWL,400
Color_EndWL,700
Color_IncWL,10
power_unit_index,3
photometric_index,0
Illuminant_index,3
observer_index,0
lab_l,0
lab_a,0
lab_b,0
radiometric_flag,0
coefs_a0,348.690626413622
coefs_a1,0.577242842360403
coefs_a2,-0.000102397725884922
coefs_a3,-1.43696470178894E-09
coefs_b0,-604.699216452593
coefs_b1,1.81821494738794
coefs_b2,-0.000542372268672448
coefs_b3,8.54199818797248E-07
coefs_r0,1
coefs_r1,0
coefs_r2,0
coefs_r3,0
coefs_j0,1
coefs_j1,0
coefs_j2,0
coefs_j3,0
enable_coefs_r,0
all_data_save,1
select_option,-1
interval_time,8000
pixel_num,1000
sel_pixel_start,0
sel_pixel_end,968
sel_pixel_delta,1
dark_compensate,0
dark_compensate_value_1,0
dark_compensate_value_2,0
dark_compensate_value_3,0
monitor pixel_0,0
monitor pixel_1,0
monitor pixel_2,0
monitor pixel_3,0
monitor pixel_4,0
monitor pixel_5,0
vertical_select_flag,0
vertical_line3,0
vertical_line4,0
vertical_line3_wv,1
vertical_line4_wv,1
vertical_line_flag,0
vertical_line_ratio,0
laser_wavelength,0
laser_powerlevel,0
overlay_js,0
Relative Intensity Correction Flag,0
Pixel,Wavelength,Wavenumber,Raman Shift,Dark,Reference,Raw data #1,Dark Subtracted #1,%TR #1,Absorbance #1,Irradiance (lumen) #1,
0,348.69,28678.72,-28678.72,2268.8000,65535.0000,2223.4000,-45.4000,0.0000,0.0000,0.0000,
1,349.27,28631.33,-28631.33,2260.4000,65535.0000,2205.2000,-55.2000,0.0000,0.0000,0.0000,
2,349.84,28584.11,-28584.11,2378.6000,65535.0000,2382.0000,3.4000,0.0000,0.0000,0.0000,
3,350.42,28537.07,-28537.07,2344.8000,65535.0000,2335.0000,-9.8000,0.0000,0.0000,0.0000,
4,351.00,28490.19,-28490.19,2351.0000,65535.0000,2313.4000,-37.6000,0.0000,0.0000,0.0000,
5,351.57,28443.49,-28443.49,2792.2000,65535.0000,2800.4000,8.2000,0.0000,0.0000,0.0000,
6,352.15,28396.96,-28396.96,2503.2000,65535.0000,2474.6000,-28.6000,0.0000,0.0000,0.0000,
7,352.73,28350.59,-28350.59,3242.0000,65535.0000,3238.8000,-3.2000,0.0000,0.0000,0.0000,
8,353.30,28304.40,-28304.40,2596.2000,65535.0000,2621.8000,25.6000,0.0000,0.0000,0.0000,
9,353.88,28258.36,-28258.36,2215.6000,65535.0000,2215.0000,-0.6000,0.0000,0.0000,0.0000,
10,354.45,28212.50,-28212.50,2244.8000,65535.0000,2241.8000,-3.0000,0.0000,0.0000,0.0000,
11,355.03,28166.80,-28166.80,2728.0000,65535.0000,2730.6000,2.6000,0.0000,0.0000,0.0000,
12,355.60,28121.26,-28121.26,2231.2000,65535.0000,2240.2000,9.0000,0.0000,0.0000,0.0000,
13,356.18,28075.89,-28075.89,2685.0000,65535.0000,2708.0000,23.0000,0.0000,0.0000,0.0000,
14,356.75,28030.68,-28030.68,2427.8000,65535.0000,2417.4000,-10.4000,0.0000,0.0000,0.0000,
15,357.33,27985.63,-27985.63,2335.8000,65535.0000,2347.0000,11.2000,0.0000,0.0000,0.0000,
16,357.90,27940.74,-27940.74,2354.2000,65535.0000,2372.4000,18.2000,0.0000,0.0000,0.0000,
17,358.47,27896.01,-27896.01,2993.4000,65535.0000,3015.2000,21.8000,0.0000,0.0000,0.0000,
18,359.05,27851.44,-27851.44,2258.0000,65535.0000,2299.2000,41.2000,0.0000,0.0000,0.0000,
19,359.62,27807.03,-27807.03,2398.4000,65535.0000,2376.2000,-22.2000,0.0000,0.0000,0.0000,
20,360.19,27762.78,-27762.78,2493.4000,65535.0000,2497.4000,4.0000,0.0000,0.0000,0.0000,
21,360.77,27718.68,-27718.68,2148.8000,65535.0000,2162.4000,13.6000,0.0000,0.0000,0.0000,
22,361.34,27674.74,-27674.74,2467.2000,65535.0000,2483.8000,16.6000,0.0000,0.0000,0.0000,
23,361.91,27630.95,-27630.95,2276.8000,65535.0000,2270.4000,-6.4000,0.0000,0.0000,0.0000,
24,362.49,27587.31,-27587.31,2553.0000,65535.0000,2547.6000,-5.4000,0.0000,0.0000,0.0000,
25,363.06,27543.83,-27543.83,2337.8000,65535.0000,2323.8000,-14.0000,0.0000,0.0000,0.0000,
26,363.63,27500.50,-27500.50,2304.4000,65535.0000,2307.8000,3.4000,0.0000,0.0000,0.0000,
27,364.20,27457.33,-27457.33,2340.2000,65535.0000,2342.6000,2.4000,0.0000,0.0000,0.0000,
28,364.77,27414.30,-27414.30,2740.6000,65535.0000,2738.0000,-2.6000,0.0000,0.0000,0.0000,
29,365.34,27371.42,-27371.42,1986.4000,65535.0000,1974.2000,-12.2000,0.0000,0.0000,0.0000,
30,365.92,27328.70,-27328.70,2180.8000,65535.0000,2185.6000,4.8000,0.0000,0.0000,0.0000,
31,366.49,27286.12,-27286.12,2166.4000,65535.0000,2206.2000,39.8000,0.0000,0.0000,0.0000,
32,367.06,27243.69,-27243.69,2533.4000,65535.0000,2524.8000,-8.6000,0.0000,0.0000,0.0000,
33,367.63,27201.40,-27201.40,2333.0000,65535.0000,2342.4000,9.4000,0.0000,0.0000,0.0000,
34,368.20,27159.27,-27159.27,2739.0000,65535.0000,2743.6000,4.6000,0.0000,0.0000,0.0000,
35,368.77,27117.27,-27117.27,2663.4000,65535.0000,2683.4000,20.0000,0.0000,0.0000,0.0000,
36,369.34,27075.43,-27075.43,2160.6000,65535.0000,2142.4000,-18.2000,0.0000,0.0000,0.0000,
37,369.91,27033.72,-27033.72,2336.2000,65535.0000,2309.4000,-26.8000,0.0000,0.0000,0.0000,
38,370.48,26992.16,-26992.16,2491.2000,65535.0000,2484.8000,-6.4000,0.0000,0.0000,0.0000,
39,371.05,26950.74,-26950.74,2285.2000,65535.0000,2321.2000,36.0000,0.0000,0.0000,0.0000,
40,371.62,26909.47,-26909.47,2284.0000,65535.0000,2290.4000,6.4000,0.0000,0.0000,0.0000,
41,372.19,26868.33,-26868.33,2035.6000,65535.0000,2078.8000,43.2000,0.0000,0.0000,0.0000,
42,372.75,26827.34,-26827.34,2132.2000,65535.0000,2149.2000,17.0000,0.0000,0.0000,0.0000,
43,373.32,26786.48,-26786.48,2213.6000,65535.0000,2215.8000,2.2000,0.0000,0.0000,0.0000,
44,373.89,26745.77,-26745.77,2238.6000,65535.0000,2263.8000,25.2000,0.0000,0.0000,0.0000,
45,374.46,26705.19,-26705.19,2401.2000,65535.0000,2366.6000,-34.6000,0.0000,0.0000,0.0000,
46,375.03,26664.75,-26664.75,2279.4000,65535.0000,2273.2000,-6.2000,0.0000,0.0000,0.0000,
47,375.59,26624.44,-26624.44,2322.6000,65535.0000,2354.0000,31.4000,0.0000,0.0000,0.0000,
48,376.16,26584.28,-26584.28,2213.8000,65535.0000,2232.0000,18.2000,0.0000,0.0000,0.0000,
49,376.73,26544.24,-26544.24,2236.4000,65535.0000,2252.0000,15.6000,0.0000,0.0000,0.0000,
50,377.30,26504.35,-26504.35,2475.2000,65535.0000,2483.4000,8.2000,0.0000,0.0000,0.0000,
51,377.86,26464.58,-26464.58,2657.4000,65535.0000,2687.6000,30.2000,0.0000,0.0000,0.0000,
52,378.43,26424.95,-26424.95,2814.0000,65535.0000,2814.2000,0.2000,0.0000,0.0000,0.0000,
53,379.00,26385.46,-26385.46,3090.0000,65535.0000,3099.6000,9.6000,0.0000,0.0000,0.0000,
54,379.56,26346.09,-26346.09,2066.6000,65535.0000,2060.6000,-6.0000,0.0000,0.0000,0.0000,
55,380.13,26306.86,-26306.86,2104.2000,65535.0000,2071.0000,-33.2000,0.0000,0.0000,0.0000,
56,380.69,26267.76,-26267.76,2655.0000,65535.0000,2657.4000,2.4000,0.0000,0.0000,0.0000,
57,381.26,26228.78,-26228.78,2388.4000,65535.0000,2380.8000,-7.6000,0.0000,0.0000,0.0000,
58,381.83,26189.94,-26189.94,2512.0000,65535.0000,2476.2000,-35.8000,0.0000,0.0000,0.0000,
59,382.39,26151.23,-26151.23,2400.0000,65535.0000,2431.4000,31.4000,0.0000,0.0000,0.0000,
60,382.96,26112.64,-26112.64,2503.2000,65535.0000,2505.4000,2.2000,0.0000,0.0000,0.0000,
61,383.52,26074.19,-26074.19,2284.2000,65535.0000,2272.2000,-12.0000,0.0000,0.0000,0.0000,
62,384.09,26035.85,-26035.85,2500.2000,65535.0000,2493.0000,-7.2000,0.0000,0.0000,0.0000,
63,384.65,25997.65,-25997.65,2246.6000,65535.0000,2274.2000,27.6000,0.0000,0.0000,0.0000,
64,385.21,25959.57,-25959.57,2820.2000,65535.0000,2830.4000,10.2000,0.0000,0.0000,0.0000,
65,385.78,25921.62,-25921.62,2360.6000,65535.0000,2422.0000,61.4000,0.0000,0.0000,0.0000,
66,386.34,25883.79,-25883.79,2669.4000,65535.0000,2690.8000,21.4000,0.0000,0.0000,0.0000,
67,386.91,25846.08,-25846.08,2304.6000,65535.0000,2330.6000,26.0000,0.0000,0.0000,0.0000,
68,387.47,25808.50,-25808.50,2401.4000,65535.0000,2436.8000,35.4000,0.0000,0.0000,0.0000,
69,388.03,25771.04,-25771.04,2291.0000,65535.0000,2302.8000,11.8000,0.0000,0.0000,0.0000,
70,388.60,25733.71,-25733.71,2074.4000,65535.0000,2079.6000,5.2000,0.0000,0.0000,0.0000,
71,389.16,25696.49,-25696.49,2616.6000,65535.0000,2628.4000,11.8000,0.0000,0.0000,0.0000,
72,389.72,25659.40,-25659.40,2613.2000,65535.0000,2658.2000,45.0000,0.0000,0.0000,0.0000,
73,390.28,25622.43,-25622.43,2996.0000,65535.0000,3001.6000,5.6000,0.0000,0.0000,0.0000,
74,390.85,25585.57,-25585.57,2258.6000,65535.0000,2260.2000,1.6000,0.0000,0.0000,0.0000,
75,391.41,25548.84,-25548.84,2263.0000,65535.0000,2237.2000,-25.8000,0.0000,0.0000,0.0000,
76,391.97,25512.22,-25512.22,2803.0000,65535.0000,2759.6000,-43.4000,0.0000,0.0000,0.0000,
77,392.53,25475.72,-25475.72,2484.2000,65535.0000,2483.2000,-1.0000,0.0000,0.0000,0.0000,
78,393.09,25439.34,-25439.34,2657.0000,65535.0000,2650.0000,-7.0000,0.0000,0.0000,0.0000,
79,393.65,25403.08,-25403.08,2557.0000,65535.0000,2522.6000,-34.4000,0.0000,0.0000,0.0000,
80,394.21,25366.93,-25366.93,2869.6000,65535.0000,2888.0000,18.4000,0.0000,0.0000,0.0000,
81,394.77,25330.90,-25330.90,2393.2000,65535.0000,2411.2000,18.0000,0.0000,0.0000,0.0000,
82,395.34,25294.99,-25294.99,2899.0000,65535.0000,2862.8000,-36.2000,0.0000,0.0000,0.0000,
83,395.90,25259.19,-25259.19,2996.2000,65535.0000,3037.8000,41.6000,0.0000,0.0000,0.0000,
84,396.46,25223.50,-25223.50,2356.6000,65535.0000,2352.8000,-3.8000,0.0000,0.0000,0.0000,
85,397.02,25187.93,-25187.93,2374.4000,65535.0000,2417.0000,42.6000,0.0000,0.0000,0.0000,
86,397.58,25152.47,-25152.47,2775.0000,65535.0000,2752.6000,-22.4000,0.0000,0.0000,0.0000,
87,398.13,25117.12,-25117.12,2029.6000,65535.0000,2047.0000,17.4000,0.0000,0.0000,0.0000,
88,398.69,25081.89,-25081.89,2286.0000,65535.0000,2273.6000,-12.4000,0.0000,0.0000,0.0000,
89,399.25,25046.77,-25046.77,2466.2000,65535.0000,2473.8000,7.6000,0.0000,0.0000,0.0000,
90,399.81,25011.75,-25011.75,2650.6000,65535.0000,2668.2000,17.6000,0.0000,0.0000,0.0000,
91,400.37,24976.85,-24976.85,2520.0000,65535.0000,2528.8000,8.8000,0.0000,0.0000,0.0000,
92,400.93,24942.06,-24942.06,3489.8000,65535.0000,3484.0000,-5.8000,0.0000,0.0000,0.0000,
93,401.49,24907.38,-24907.38,2601.2000,65535.0000,2623.6000,22.4000,0.0000,0.0000,0.0000,
94,402.05,24872.81,-24872.81,2679.6000,65535.0000,2702.6000,23.0000,0.0000,0.0000,0.0000,
95,402.60,24838.34,-24838.34,2572.8000,65535.0000,2577.4000,4.6000,0.0000,0.0000,0.0000,
96,403.16,24803.99,-24803.99,2559.0000,65535.0000,2562.4000,3.4000,0.0000,0.0000,0.0000,
97,403.72,24769.74,-24769.74,2416.8000,65535.0000,2479.2000,62.4000,0.0000,0.0000,0.0000,
98,404.28,24735.60,-24735.60,2577.6000,65535.0000,2570.4000,-7.2000,0.0000,0.0000,0.0000,
99,404.83,24701.56,-24701.56,2141.0000,65535.0000,2166.4000,25.4000,0.0000,0.0000,0.0000,
100,405.39,24667.63,-24667.63,2211.4000,65535.0000,2237.0000,25.6000,0.0000,0.0000,0.0000,
101,405.95,24633.81,-24633.81,2483.4000,65535.0000,2563.0000,79.6000,0.0000,0.0000,0.0000,
102,406.50,24600.09,-24600.09,2442.4000,65535.0000,2495.2000,52.8000,0.0000,0.0000,0.0000,
103,407.06,24566.48,-24566.48,2537.0000,65535.0000,2545.4000,8.4000,0.0000,0.0000,0.0000,
104,407.61,24532.97,-24532.97,2544.0000,65535.0000,2551.4000,7.4000,0.0000,0.0000,0.0000,
105,408.17,24499.56,-24499.56,2380.6000,65535.0000,2377.2000,-3.4000,0.0000,0.0000,0.0000,
106,408.73,24466.26,-24466.26,2462.4000,65535.0000,2427.8000,-34.6000,0.0000,0.0000,0.0000,
107,409.28,24433.06,-24433.06,2182.2000,65535.0000,2181.0000,-1.2000,0.0000,0.0000,0.0000,
108,409.84,24399.96,-24399.96,2313.6000,65535.0000,2306.4000,-7.2000,0.0000,0.0000,0.0000,
109,410.39,24366.97,-24366.97,2826.2000,65535.0000,2847.8000,21.6000,0.0000,0.0000,0.0000,
110,410.95,24334.07,-24334.07,2770.0000,65535.0000,2804.8000,34.8000,0.0000,0.0000,0.0000,
111,411.50,24301.28,-24301.28,2620.2000,65535.0000,2619.6000,-0.6000,0.0000,0.0000,0.0000,
112,412.06,24268.59,-24268.59,2303.0000,65535.0000,2302.4000,-0.6000,0.0000,0.0000,0.0000,
113,412.61,24235.99,-24235.99,2582.2000,65535.0000,2611.2000,29.0000,0.0000,0.0000,0.0000,
114,413.16,24203.50,-24203.50,2637.4000,65535.0000,2657.4000,20.0000,0.0000,0.0000,0.0000,
115,413.72,24171.10,-24171.10,2658.8000,65535.0000,2662.2000,3.4000,0.0000,0.0000,0.0000,
116,414.27,24138.81,-24138.81,2139.4000,65535.0000,2179.4000,40.0000,0.0000,0.0000,0.0000,
117,414.82,24106.61,-24106.61,2341.0000,65535.0000,2347.4000,6.4000,0.0000,0.0000,0.0000,
118,415.38,24074.51,-24074.51,2938.4000,65535.0000,3005.4000,67.0000,0.0000,0.0000,0.0000,
119,415.93,24042.50,-24042.50,2433.4000,65535.0000,2453.8000,20.4000,0.0000,0.0000,0.0000,
120,416.48,24010.60,-24010.60,2349.0000,65535.0000,2336.0000,-13.0000,0.0000,0.0000,0.0000,
121,417.04,23978.79,-23978.79,2732.4000,65535.0000,2743.2000,10.8000,0.0000,0.0000,0.0000,
122,417.59,23947.07,-23947.07,2170.4000,65535.0000,2158.4000,-12.0000,0.0000,0.0000,0.0000,
123,418.14,23915.46,-23915.46,2512.4000,65535.0000,2524.8000,12.4000,0.0000,0.0000,0.0000,
124,418.69,23883.93,-23883.93,2648.2000,65535.0000,2666.6000,18.4000,0.0000,0.0000,0.0000,
125,419.24,23852.50,-23852.50,2594.4000,65535.0000,2620.6000,26.2000,0.0000,0.0000,0.0000,
126,419.79,23821.17,-23821.17,2642.6000,65535.0000,2635.4000,-7.2000,0.0000,0.0000,0.0000,
127,420.35,23789.93,-23789.93,2591.6000,65535.0000,2593.2000,1.6000,0.0000,0.0000,0.0000,
128,420.90,23758.78,-23758.78,2001.0000,65535.0000,2046.0000,45.0000,0.0000,0.0000,0.0000,
129,421.45,23727.73,-23727.73,2404.0000,65535.0000,2426.0000,22.0000,0.0000,0.0000,0.0000,
130,422.00,23696.77,-23696.77,2445.0000,65535.0000,2448.0000,3.0000,0.0000,0.0000,0.0000,
131,422.55,23665.90,-23665.90,2416.4000,65535.0000,2419.0000,2.6000,0.0000,0.0000,0.0000,
132,423.10,23635.12,-23635.12,2444.0000,65535.0000,2442.8000,-1.2000,0.0000,0.0000,0.0000,
133,423.65,23604.43,-23604.43,2445.8000,65535.0000,2425.8000,-20.0000,0.0000,0.0000,0.0000,
134,424.20,23573.84,-23573.84,2221.6000,65535.0000,2241.6000,20.0000,0.0000,0.0000,0.0000,
135,424.75,23543.33,-23543.33,2953.4000,65535.0000,3000.8000,47.4000,0.0000,0.0000,0.0000,
136,425.30,23512.92,-23512.92,2495.8000,65535.0000,2516.8000,21.0000,0.0000,0.0000,0.0000,
137,425.85,23482.60,-23482.60,2127.2000,65535.0000,2149.4000,22.2000,0.0000,0.0000,0.0000,
138,426.40,23452.36,-23452.36,2418.6000,65535.0000,2450.8000,32.2000,0.0000,0.0000,0.0000,
139,426.95,23422.22,-23422.22,2702.0000,65535.0000,2731.4000,29.4000,0.0000,0.0000,0.0000,
140,427.49,23392.16,-23392.16,2227.6000,65535.0000,2233.2000,5.6000,0.0000,0.0000,0.0000,
141,428.04,23362.19,-23362.19,2361.8000,65535.0000,2426.2000,64.4000,0.0000,0.0000,0.0000,
142,428.59,23332.31,-23332.31,2214.4000,65535.0000,2243.8000,29.4000,0.0000,0.0000,0.0000,
143,429.14,23302.52,-23302.52,2588.0000,65535.0000,2629.6000,41.6000,0.0000,0.0000,0.0000,
144,429.69,23272.81,-23272.81,2730.4000,65535.0000,2785.6000,55.2000,0.0000,0.0000,0.0000,
145,430.23,23243.19,-23243.19,2244.8000,65535.0000,2241.4000,-3.4000,0.0000,0.0000,0.0000,
146,430.78,23213.66,-23213.66,2322.4000,65535.0000,2335.0000,12.6000,0.0000,0.0000,0.0000,
147,431.33,23184.21,-23184.21,2555.2000,65535.0000,2597.4000,42.2000,0.0000,0.0000,0.0000,
148,431.87,23154.85,-23154.85,2639.0000,65535.0000,2675.4000,36.4000,0.0000,0.0000,0.0000,
149,432.42,23125.57,-23125.57,2825.6000,65535.0000,2864.6000,39.0000,0.0000,0.0000,0.0000,
150,432.97,23096.38,-23096.38,2454.8000,65535.0000,2516.6000,61.8000,0.0000,0.0000,0.0000,
151,433.51,23067.28,-23067.28,2379.0000,65535.0000,2419.8000,40.8000,0.0000,0.0000,0.0000,
152,434.06,23038.25,-23038.25,2855.0000,65535.0000,2885.4000,30.4000,0.0000,0.0000,0.0000,
153,434.61,23009.31,-23009.31,2446.4000,65535.0000,2480.2000,33.8000,0.0000,0.0000,0.0000,
154,435.15,22980.46,-22980.46,2635.8000,65535.0000,2701.6000,65.8000,0.0000,0.0000,0.0000,
155,435.70,22951.69,-22951.69,2434.0000,65535.0000,2446.6000,12.6000,0.0000,0.0000,0.0000,
156,436.24,22923.00,-22923.00,2900.4000,65535.0000,2945.0000,44.6000,0.0000,0.0000,0.0000,
157,436.79,22894.39,-22894.39,2847.4000,65535.0000,2923.2000,75.8000,0.0000,0.0000,0.0000,
158,437.33,22865.87,-22865.87,2273.0000,65535.0000,2288.0000,15.0000,0.0000,0.0000,0.0000,
159,437.88,22837.42,-22837.42,2088.8000,65535.0000,2158.4000,69.6000,0.0000,0.0000,0.0000,
160,438.42,22809.06,-22809.06,2333.6000,65535.0000,2359.8000,26.2000,0.0000,0.0000,0.0000,
161,438.97,22780.78,-22780.78,2787.2000,65535.0000,2805.8000,18.6000,0.0000,0.0000,0.0000,
162,439.51,22752.58,-22752.58,2625.4000,65535.0000,2638.8000,13.4000,0.0000,0.0000,0.0000,
163,440.05,22724.46,-22724.46,2350.8000,65535.0000,2436.4000,85.6000,0.0000,0.0000,0.0000,
164,440.60,22696.42,-22696.42,2395.0000,65535.0000,2418.8000,23.8000,0.0000,0.0000,0.0000,
165,441.14,22668.47,-22668.47,2559.0000,65535.0000,2580.6000,21.6000,0.0000,0.0000,0.0000,
166,441.68,22640.59,-22640.59,2656.8000,65535.0000,2695.6000,38.8000,0.0000,0.0000,0.0000,
167,442.23,22612.78,-22612.78,2113.4000,65535.0000,2108.8000,-4.6000,0.0000,0.0000,0.0000,
168,442.77,22585.06,-22585.06,2326.0000,65535.0000,2376.6000,50.6000,0.0000,0.0000,0.0000,
169,443.31,22557.42,-22557.42,2183.6000,65535.0000,2245.2000,61.6000,0.0000,0.0000,0.0000,
170,443.86,22529.85,-22529.85,2375.0000,65535.0000,2434.8000,59.8000,0.0000,0.0000,0.0000,
171,444.40,22502.36,-22502.36,2347.8000,65535.0000,2431.2000,83.4000,0.0000,0.0000,0.0000,
172,444.94,22474.95,-22474.95,2696.8000,65535.0000,2728.6000,31.8000,0.0000,0.0000,0.0000,
173,445.48,22447.62,-22447.62,2429.6000,65535.0000,2462.2000,32.6000,0.0000,0.0000,0.0000,
174,446.02,22420.36,-22420.36,2748.4000,65535.0000,2743.4000,-5.0000,0.0000,0.0000,0.0000,
175,446.56,22393.18,-22393.18,2882.8000,65535.0000,3011.0000,128.2000,0.0000,0.0000,0.0000,
176,447.11,22366.08,-22366.08,2237.0000,65535.0000,2323.4000,86.4000,0.0000,0.0000,0.0000,
177,447.65,22339.05,-22339.05,2376.6000,65535.0000,2409.8000,33.2000,0.0000,0.0000,0.0000,
178,448.19,22312.10,-22312.10,2232.0000,65535.0000,2283.4000,51.4000,0.0000,0.0000,0.0000,
179,448.73,22285.22,-22285.22,2674.0000,65535.0000,2779.6000,105.6000,0.0000,0.0000,0.0000,
180,449.27,22258.42,-22258.42,2401.2000,65535.0000,2459.6000,58.4000,0.0000,0.0000,0.0000,
181,449.81,22231.69,-22231.69,2208.6000,65535.0000,2221.6000,13.0000,0.0000,0.0000,0.0000,
182,450.35,22205.03,-22205.03,2557.2000,65535.0000,2605.6000,48.4000,0.0000,0.0000,0.0000,
183,450.89,22178.45,-22178.45,2550.4000,65535.0000,2550.6000,0.2000,0.0000,0.0000,0.0000,
184,451.43,22151.95,-22151.95,2204.8000,65535.0000,2233.0000,28.2000,0.0000,0.0000,0.0000,
185,451.97,22125.51,-22125.51,2941.0000,65535.0000,2922.2000,-18.8000,0.0000,0.0000,0.0000,
186,452.51,22099.15,-22099.15,2515.6000,65535.0000,2559.4000,43.8000,0.0000,0.0000,0.0000,
187,453.04,22072.87,-22072.87,2505.6000,65535.0000,2522.2000,16.6000,0.0000,0.0000,0.0000,
188,453.58,22046.65,-22046.65,2162.6000,65535.0000,2204.2000,41.6000,0.0000,0.0000,0.0000,
189,454.12,22020.51,-22020.51,3019.0000,65535.0000,3088.0000,69.0000,0.0000,0.0000,0.0000,
190,454.66,21994.44,-21994.44,2396.0000,65535.0000,2454.0000,58.0000,0.0000,0.0000,0.0000,
191,455.20,21968.44,-21968.44,2619.6000,65535.0000,2715.2000,95.6000,0.0000,0.0000,0.0000,
192,455.74,21942.51,-21942.51,2569.2000,65535.0000,2606.6000,37.4000,0.0000,0.0000,0.0000,
193,456.27,21916.66,-21916.66,2660.6000,65535.0000,2691.8000,31.2000,0.0000,0.0000,0.0000,
194,456.81,21890.87,-21890.87,3265.8000,65535.0000,3322.2000,56.4000,0.0000,0.0000,0.0000,
195,457.35,21865.16,-21865.16,2496.4000,65535.0000,2540.4000,44.0000,0.0000,0.0000,0.0000,
196,457.89,21839.51,-21839.51,2320.6000,65535.0000,2377.8000,57.2000,0.0000,0.0000,0.0000,
197,458.42,21813.94,-21813.94,3342.4000,65535.0000,3399.4000,57.0000,0.0000,0.0000,0.0000,
198,458.96,21788.43,-21788.43,2706.0000,65535.0000,2755.6000,49.6000,0.0000,0.0000,0.0000,
199,459.50,21763.00,-21763.00,2885.8000,65535.0000,2951.4000,65.6000,0.0000,0.0000,0.0000,
200,460.03,21737.63,-21737.63,2765.4000,65535.0000,2840.6000,75.2000,0.0000,0.0000,0.0000,
201,460.57,21712.33,-21712.33,2467.6000,65535.0000,2508.8000,41.2000,0.0000,0.0000,0.0000,
202,461.10,21687.10,-21687.10,3039.4000,65535.0000,3078.4000,39.0000,0.0000,0.0000,0.0000,
203,461.64,21661.94,-21661.94,2144.2000,65535.0000,2255.2000,111.0000,0.0000,0.0000,0.0000,
204,462.17,21636.85,-21636.85,2133.2000,65535.0000,2199.8000,66.6000,0.0000,0.0000,0.0000,
205,462.71,21611.82,-21611.82,2715.0000,65535.0000,2770.0000,55.0000,0.0000,0.0000,0.0000,
206,463.24,21586.86,-21586.86,2680.0000,65535.0000,2724.4000,44.4000,0.0000,0.0000,0.0000,
207,463.78,21561.97,-21561.97,2966.8000,65535.0000,2974.8000,8.0000,0.0000,0.0000,0.0000,
208,464.31,21537.15,-21537.15,2390.4000,65535.0000,2429.6000,39.2000,0.0000,0.0000,0.0000,
209,464.85,21512.39,-21512.39,2607.4000,65535.0000,2662.2000,54.8000,0.0000,0.0000,0.0000,
210,465.38,21487.70,-21487.70,2334.0000,65535.0000,2384.0000,50.0000,0.0000,0.0000,0.0000,
211,465.92,21463.07,-21463.07,2325.2000,65535.0000,2408.2000,83.0000,0.0000,0.0000,0.0000,
212,466.45,21438.51,-21438.51,3110.8000,65535.0000,3252.2000,141.4000,0.0000,0.0000,0.0000,
213,466.98,21414.02,-21414.02,4167.2000,65535.0000,4198.4000,31.2000,0.0000,0.0000,0.0000,
214,467.52,21389.59,-21389.59,2695.2000,65535.0000,2813.0000,117.8000,0.0000,0.0000,0.0000,
215,468.05,21365.23,-21365.23,2548.6000,65535.0000,2599.6000,51.0000,0.0000,0.0000,0.0000,
216,468.58,21340.93,-21340.93,2235.0000,65535.0000,2288.2000,53.2000,0.0000,0.0000,0.0000,
217,469.12,21316.70,-21316.70,2474.4000,65535.0000,2548.6000,74.2000,0.0000,0.0000,0.0000,
218,469.65,21292.53,-21292.53,2978.0000,65535.0000,3037.2000,59.2000,0.0000,0.0000,0.0000,
219,470.18,21268.42,-21268.42,2576.8000,65535.0000,2662.4000,85.6000,0.0000,0.0000,0.0000,
220,470.71,21244.38,-21244.38,2279.6000,65535.0000,2368.0000,88.4000,0.0000,0.0000,0.0000,
221,471.24,21220.40,-21220.40,2213.4000,65535.0000,2268.6000,55.2000,0.0000,0.0000,0.0000,
222,471.78,21196.49,-21196.49,2308.8000,65535.0000,2363.4000,54.6000,0.0000,0.0000,0.0000,
223,472.31,21172.64,-21172.64,2678.6000,65535.0000,2740.8000,62.2000,0.0000,0.0000,0.0000,
224,472.84,21148.85,-21148.85,2273.0000,65535.0000,2379.0000,106.0000,0.0000,0.0000,0.0000,
225,473.37,21125.12,-21125.12,2754.2000,65535.0000,2882.0000,127.8000,0.0000,0.0000,0.0000,
226,473.90,21101.46,-21101.46,2446.6000,65535.0000,2516.6000,70.0000,0.0000,0.0000,0.0000,
227,474.43,21077.86,-21077.86,2542.8000,65535.0000,2621.0000,78.2000,0.0000,0.0000,0.0000,
228,474.96,21054.32,-21054.32,2615.6000,65535.0000,2652.2000,36.6000,0.0000,0.0000,0.0000,
229,475.49,21030.84,-21030.84,2475.6000,65535.0000,2516.4000,40.8000,0.0000,0.0000,0.0000,
230,476.02,21007.43,-21007.43,2720.4000,65535.0000,2778.0000,57.6000,0.0000,0.0000,0.0000,
231,476.55,20984.07,-20984.07,2238.2000,65535.0000,2349.4000,111.2000,0.0000,0.0000,0.0000,
232,477.08,20960.78,-20960.78,2193.2000,65535.0000,2286.8000,93.6000,0.0000,0.0000,0.0000,
233,477.61,20937.54,-20937.54,2354.0000,65535.0000,2505.4000,151.4000,0.0000,0.0000,0.0000,
234,478.14,20914.37,-20914.37,2413.6000,65535.0000,2509.4000,95.8000,0.0000,0.0000,0.0000,
235,478.67,20891.26,-20891.26,2288.8000,65535.0000,2416.4000,127.6000,0.0000,0.0000,0.0000,
236,479.20,20868.20,-20868.20,2692.2000,65535.0000,2823.6000,131.4000,0.0000,0.0000,0.0000,
237,479.73,20845.21,-20845.21,2345.0000,65535.0000,2448.8000,103.8000,0.0000,0.0000,0.0000,
238,480.25,20822.28,-20822.28,2114.8000,65535.0000,2208.4000,93.6000,0.0000,0.0000,0.0000,
239,480.78,20799.40,-20799.40,2433.4000,65535.0000,2526.0000,92.6000,0.0000,0.0000,0.0000,
240,481.31,20776.59,-20776.59,2622.0000,65535.0000,2749.0000,127.0000,0.0000,0.0000,0.0000,
241,481.84,20753.83,-20753.83,2540.0000,65535.0000,2637.4000,97.4000,0.0000,0.0000,0.0000,
242,482.37,20731.14,-20731.14,2229.4000,65535.0000,2357.6000,128.2000,0.0000,0.0000,0.0000,
243,482.89,20708.50,-20708.50,2605.6000,65535.0000,2687.0000,81.4000,0.0000,0.0000,0.0000,
244,483.42,20685.92,-20685.92,2374.0000,65535.0000,2506.2000,132.2000,0.0000,0.0000,0.0000,
245,483.95,20663.40,-20663.40,2513.4000,65535.0000,2624.6000,111.2000,0.0000,0.0000,0.0000,
246,484.47,20640.93,-20640.93,2723.8000,65535.0000,2859.2000,135.4000,0.0000,0.0000,0.0000,
247,485.00,20618.52,-20618.52,2394.8000,65535.0000,2566.6000,171.8000,0.0000,0.0000,0.0000,
248,485.53,20596.17,-20596.17,2932.8000,65535.0000,3071.4000,138.6000,0.0000,0.0000,0.0000,
249,486.05,20573.88,-20573.88,2828.6000,65535.0000,2965.2000,136.6000,0.0000,0.0000,0.0000,
250,486.58,20551.65,-20551.65,2612.6000,65535.0000,2780.4000,167.8000,0.0000,0.0000,0.0000,
251,487.10,20529.47,-20529.47,2874.0000,65535.0000,3024.6000,150.6000,0.0000,0.0000,0.0000,
252,487.63,20507.35,-20507.35,2265.6000,65535.0000,2400.2000,134.6000,0.0000,0.0000,0.0000,
253,488.16,20485.28,-20485.28,2677.0000,65535.0000,2841.0000,164.0000,0.0000,0.0000,0.0000,
254,488.68,20463.27,-20463.27,2535.8000,65535.0000,2693.8000,158.0000,0.0000,0.0000,0.0000,
255,489.21,20441.32,-20441.32,2846.8000,65535.0000,3006.4000,159.6000,0.0000,0.0000,0.0000,
256,489.73,20419.42,-20419.42,2306.2000,65535.0000,2466.6000,160.4000,0.0000,0.0000,0.0000,
257,490.25,20397.57,-20397.57,2614.0000,65535.0000,2755.6000,141.6000,0.0000,0.0000,0.0000,
258,490.78,20375.79,-20375.79,2914.8000,65535.0000,3081.4000,166.6000,0.0000,0.0000,0.0000,
259,491.30,20354.05,-20354.05,2490.4000,65535.0000,2624.8000,134.4000,0.0000,0.0000,0.0000,
260,491.83,20332.38,-20332.38,2486.8000,65535.0000,2666.6000,179.8000,0.0000,0.0000,0.0000,
261,492.35,20310.75,-20310.75,2236.8000,65535.0000,2383.0000,146.2000,0.0000,0.0000,0.0000,
262,492.87,20289.19,-20289.19,2830.2000,65535.0000,3011.6000,181.4000,0.0000,0.0000,0.0000,
263,493.40,20267.67,-20267.67,3345.2000,65535.0000,3501.6000,156.4000,0.0000,0.0000,0.0000,
264,493.92,20246.21,-20246.21,2505.4000,65535.0000,2672.4000,167.0000,0.0000,0.0000,0.0000,
265,494.44,20224.80,-20224.80,2319.2000,65535.0000,2487.4000,168.2000,0.0000,0.0000,0.0000,
266,494.96,20203.45,-20203.45,2044.8000,65535.0000,2203.2000,158.4000,0.0000,0.0000,0.0000,
267,495.49,20182.15,-20182.15,2250.8000,65535.0000,2415.6000,164.8000,0.0000,0.0000,0.0000,
268,496.01,20160.91,-20160.91,2212.0000,65535.0000,2406.4000,194.4000,0.0000,0.0000,0.0000,
269,496.53,20139.71,-20139.71,2239.2000,65535.0000,2418.6000,179.4000,0.0000,0.0000,0.0000,
270,497.05,20118.57,-20118.57,2787.8000,65535.0000,2998.0000,210.2000,0.0000,0.0000,0.0000,
271,497.57,20097.49,-20097.49,2662.6000,65535.0000,2908.0000,245.4000,0.0000,0.0000,0.0000,
272,498.10,20076.45,-20076.45,2485.4000,65535.0000,2671.8000,186.4000,0.0000,0.0000,0.0000,
273,498.62,20055.47,-20055.47,2680.6000,65535.0000,2874.8000,194.2000,0.0000,0.0000,0.0000,
274,499.14,20034.54,-20034.54,2022.8000,65535.0000,2209.8000,187.0000,0.0000,0.0000,0.0000,
275,499.66,20013.66,-20013.66,3899.6000,65535.0000,4140.0000,240.4000,0.0000,0.0000,0.0000,
276,500.18,19992.83,-19992.83,2671.6000,65535.0000,2845.2000,173.6000,0.0000,0.0000,0.0000,
277,500.70,19972.06,-19972.06,2336.2000,65535.0000,2536.4000,200.2000,0.0000,0.0000,0.0000,
278,501.22,19951.34,-19951.34,2420.6000,65535.0000,2542.6000,122.0000,0.0000,0.0000,0.0000,
279,501.74,19930.66,-19930.66,2457.8000,65535.0000,2626.6000,168.8000,0.0000,0.0000,0.0000,
280,502.26,19910.04,-19910.04,2393.8000,65535.0000,2555.8000,162.0000,0.0000,0.0000,0.0000,
281,502.78,19889.47,-19889.47,2555.4000,65535.0000,2773.0000,217.6000,0.0000,0.0000,0.0000,
282,503.30,19868.95,-19868.95,2566.2000,65535.0000,2761.2000,195.0000,0.0000,0.0000,0.0000,
283,503.82,19848.48,-19848.48,2523.8000,65535.0000,2759.0000,235.2000,0.0000,0.0000,0.0000,
284,504.34,19828.06,-19828.06,2295.0000,65535.0000,2524.8000,229.8000,0.0000,0.0000,0.0000,
285,504.85,19807.69,-19807.69,2245.0000,65535.0000,2439.0000,194.0000,0.0000,0.0000,0.0000,
286,505.37,19787.38,-19787.38,2285.8000,65535.0000,2469.8000,184.0000,0.0000,0.0000,0.0000,
287,505.89,19767.11,-19767.11,2258.4000,65535.0000,2446.2000,187.8000,0.0000,0.0000,0.0000,
288,506.41,19746.89,-19746.89,1953.2000,65535.0000,2187.8000,234.6000,0.0000,0.0000,0.0000,
289,506.93,19726.72,-19726.72,2169.0000,65535.0000,2334.8000,165.8000,0.0000,0.0000,0.0000,
290,507.44,19706.59,-19706.59,2352.0000,65535.0000,2544.4000,192.4000,0.0000,0.0000,0.0000,
291,507.96,19686.52,-19686.52,2049.0000,65535.0000,2214.6000,165.6000,0.0000,0.0000,0.0000,
292,508.48,19666.50,-19666.50,2205.4000,65535.0000,2379.2000,173.8000,0.0000,0.0000,0.0000,
293,509.00,19646.52,-19646.52,2153.2000,65535.0000,2339.0000,185.8000,0.0000,0.0000,0.0000,
294,509.51,19626.60,-19626.60,2300.8000,65535.0000,2511.6000,210.8000,0.0000,0.0000,0.0000,
295,510.03,19606.72,-19606.72,2745.8000,65535.0000,2966.6000,220.8000,0.0000,0.0000,0.0000,
296,510.55,19586.89,-19586.89,2103.2000,65535.0000,2363.0000,259.8000,0.0000,0.0000,0.0000,
297,511.06,19567.11,-19567.11,2634.2000,65535.0000,2882.0000,247.8000,0.0000,0.0000,0.0000,
298,511.58,19547.38,-19547.38,2119.2000,65535.0000,2332.8000,213.6000,0.0000,0.0000,0.0000,
299,512.09,19527.69,-19527.69,2335.8000,65535.0000,2554.4000,218.6000,0.0000,0.0000,0.0000,
300,512.61,19508.05,-19508.05,3059.2000,65535.0000,3301.2000,242.0000,0.0000,0.0000,0.0000,
301,513.12,19488.46,-19488.46,3235.2000,65535.0000,3467.2000,232.0000,0.0000,0.0000,0.0000,
302,513.64,19468.92,-19468.92,2718.0000,65535.0000,2929.2000,211.2000,0.0000,0.0000,0.0000,
303,514.15,19449.42,-19449.42,2266.2000,65535.0000,2516.8000,250.6000,0.0000,0.0000,0.0000,
304,514.67,19429.97,-19429.97,2094.4000,65535.0000,2368.0000,273.6000,0.0000,0.0000,0.0000,
305,515.18,19410.56,-19410.56,2241.8000,65535.0000,2492.6000,250.8000,0.0000,0.0000,0.0000,
306,515.70,19391.21,-19391.21,2435.8000,65535.0000,2665.8000,230.0000,0.0000,0.0000,0.0000,
307,516.21,19371.90,-19371.90,2616.6000,65535.0000,2886.8000,270.2000,0.0000,0.0000,0.0000,
308,516.73,19352.63,-19352.63,2597.0000,65535.0000,2831.2000,234.2000,0.0000,0.0000,0.0000,
309,517.24,19333.41,-19333.41,2056.2000,65535.0000,2296.8000,240.6000,0.0000,0.0000,0.0000,
310,517.75,19314.24,-19314.24,2102.8000,65535.0000,2347.2000,244.4000,0.0000,0.0000,0.0000,
311,518.27,19295.11,-19295.11,3262.4000,65535.0000,3542.4000,280.0000,0.0000,0.0000,0.0000,
312,518.78,19276.03,-19276.03,2134.2000,65535.0000,2369.4000,235.2000,0.0000,0.0000,0.0000,
313,519.29,19257.00,-19257.00,2327.0000,65535.0000,2614.8000,287.8000,0.0000,0.0000,0.0000,
314,519.80,19238.01,-19238.01,2459.6000,65535.0000,2755.8000,296.2000,0.0000,0.0000,0.0000,
315,520.32,19219.06,-19219.06,1952.2000,65535.0000,2203.4000,251.2000,0.0000,0.0000,0.0000,
316,520.83,19200.16,-19200.16,2305.8000,65535.0000,2547.6000,241.8000,0.0000,0.0000,0.0000,
317,521.34,19181.30,-19181.30,2645.6000,65535.0000,2907.2000,261.6000,0.0000,0.0000,0.0000,
318,521.85,19162.49,-19162.49,2306.6000,65535.0000,2580.8000,274.2000,0.0000,0.0000,0.0000,
319,522.36,19143.73,-19143.73,2908.4000,65535.0000,3178.0000,269.6000,0.0000,0.0000,0.0000,
320,522.88,19125.00,-19125.00,2351.4000,65535.0000,2662.0000,310.6000,0.0000,0.0000,0.0000,
321,523.39,19106.33,-19106.33,2522.4000,65535.0000,2836.4000,314.0000,0.0000,0.0000,0.0000,
322,523.90,19087.69,-19087.69,2725.2000,65535.0000,3038.6000,313.4000,0.0000,0.0000,0.0000,
323,524.41,19069.10,-19069.10,2628.4000,65535.0000,2922.0000,293.6000,0.0000,0.0000,0.0000,
324,524.92,19050.55,-19050.55,2371.0000,65535.0000,2637.2000,266.2000,0.0000,0.0000,0.0000,
325,525.43,19032.05,-19032.05,2806.8000,65535.0000,3116.0000,309.2000,0.0000,0.0000,0.0000,
326,525.94,19013.59,-19013.59,2165.2000,65535.0000,2471.8000,306.6000,0.0000,0.0000,0.0000,
327,526.45,18995.17,-18995.17,2265.0000,65535.0000,2609.4000,344.4000,0.0000,0.0000,0.0000,
328,526.96,18976.80,-18976.80,2058.0000,65535.0000,2385.8000,327.8000,0.0000,0.0000,0.0000,
329,527.47,18958.47,-18958.47,2526.0000,65535.0000,2893.2000,367.2000,0.0000,0.0000,0.0000,
330,527.98,18940.18,-18940.18,1987.2000,65535.0000,2272.0000,284.8000,0.0000,0.0000,0.0000,
331,528.49,18921.94,-18921.94,2273.4000,65535.0000,2597.2000,323.8000,0.0000,0.0000,0.0000,
332,529.00,18903.74,-18903.74,2153.4000,65535.0000,2502.6000,349.2000,0.0000,0.0000,0.0000,
333,529.50,18885.58,-18885.58,2162.6000,65535.0000,2520.6000,358.0000,0.0000,0.0000,0.0000,
334,530.01,18867.46,-18867.46,2024.4000,65535.0000,2357.8000,333.4000,0.0000,0.0000,0.0000,
335,530.52,18849.38,-18849.38,2183.2000,65535.0000,2526.8000,343.6000,0.0000,0.0000,0.0000,
336,531.03,18831.35,-18831.35,2414.0000,65535.0000,2715.2000,301.2000,0.0000,0.0000,0.0000,
337,531.54,18813.36,-18813.36,2709.8000,65535.0000,3042.0000,332.2000,0.0000,0.0000,0.0000,
338,532.04,18795.41,-18795.41,2430.2000,65535.0000,2799.2000,369.0000,0.0000,0.0000,0.0000,
339,532.55,18777.50,-18777.50,2224.4000,65535.0000,2583.6000,359.2000,0.0000,0.0000,0.0000,
340,533.06,18759.63,-18759.63,2353.0000,65535.0000,2704.4000,351.4000,0.0000,0.0000,0.0000,
341,533.57,18741.80,-18741.80,2670.8000,65535.0000,3028.6000,357.8000,0.0000,0.0000,0.0000,
342,534.07,18724.02,-18724.02,2052.0000,65535.0000,2372.0000,320.0000,0.0000,0.0000,0.0000,
343,534.58,18706.28,-18706.28,2150.4000,65535.0000,2488.6000,338.2000,0.0000,0.0000,0.0000,
344,535.09,18688.57,-18688.57,2233.2000,65535.0000,2618.6000,385.4000,0.0000,0.0000,0.0000,
345,535.59,18670.91,-18670.91,2785.6000,65535.0000,3154.6000,369.0000,0.0000,0.0000,0.0000,
346,536.10,18653.29,-18653.29,3222.0000,65535.0000,3614.8000,392.8000,0.0000,0.0000,0.0000,
347,536.60,18635.71,-18635.71,2325.6000,65535.0000,2688.4000,362.8000,0.0000,0.0000,0.0000,
348,537.11,18618.17,-18618.17,2048.8000,65535.0000,2384.2000,335.4000,0.0000,0.0000,0.0000,
349,537.62,18600.67,-18600.67,2482.6000,65535.0000,2852.0000,369.4000,0.0000,0.0000,0.0000,
350,538.12,18583.21,-18583.21,2098.4000,65535.0000,2493.2000,394.8000,0.0000,0.0000,0.0000,
351,538.63,18565.78,-18565.78,2066.2000,65535.0000,2448.6000,382.4000,0.0000,0.0000,0.0000,
352,539.13,18548.40,-18548.40,2594.6000,65535.0000,2952.6000,358.0000,0.0000,0.0000,0.0000,
353,539.63,18531.06,-18531.06,2152.2000,65535.0000,2516.4000,364.2000,0.0000,0.0000,0.0000,
354,540.14,18513.76,-18513.76,2198.2000,65535.0000,2591.0000,392.8000,0.0000,0.0000,0.0000,
355,540.64,18496.50,-18496.50,2358.6000,65535.0000,2725.8000,367.2000,0.0000,0.0000,0.0000,
356,541.15,18479.28,-18479.28,2466.6000,65535.0000,2849.0000,382.4000,0.0000,0.0000,0.0000,
357,541.65,18462.09,-18462.09,2158.4000,65535.0000,2561.8000,403.4000,0.0000,0.0000,0.0000,
358,542.15,18444.95,-18444.95,2183.8000,65535.0000,2596.0000,412.2000,0.0000,0.0000,0.0000,
359,542.66,18427.84,-18427.84,2537.4000,65535.0000,2974.8000,437.4000,0.0000,0.0000,0.0000,
360,543.16,18410.77,-18410.77,2092.0000,65535.0000,2508.8000,416.8000,0.0000,0.0000,0.0000,
361,543.66,18393.74,-18393.74,2700.8000,65535.0000,3171.8000,471.0000,0.0000,0.0000,0.0000,
362,544.17,18376.75,-18376.75,2671.4000,65535.0000,3065.2000,393.8000,0.0000,0.0000,0.0000,
363,544.67,18359.80,-18359.80,3057.2000,65535.0000,3546.4000,489.2000,0.0000,0.0000,0.0000,
364,545.17,18342.89,-18342.89,2472.6000,65535.0000,2937.8000,465.2000,0.0000,0.0000,0.0000,
365,545.67,18326.01,-18326.01,2461.4000,65535.0000,2922.4000,461.0000,0.0000,0.0000,0.0000,
366,546.17,18309.17,-18309.17,2480.4000,65535.0000,2926.4000,446.0000,0.0000,0.0000,0.0000,
367,546.68,18292.37,-18292.37,2386.6000,65535.0000,2853.2000,466.6000,0.0000,0.0000,0.0000,
368,547.18,18275.61,-18275.61,3088.0000,65535.0000,3608.4000,520.4000,0.0000,0.0000,0.0000,
369,547.68,18258.89,-18258.89,2352.4000,65535.0000,2820.8000,468.4000,0.0000,0.0000,0.0000,
370,548.18,18242.20,-18242.20,2285.0000,65535.0000,2736.6000,451.6000,0.0000,0.0000,0.0000,
371,548.68,18225.55,-18225.55,2064.2000,65535.0000,2488.2000,424.0000,0.0000,0.0000,0.0000,
372,549.18,18208.94,-18208.94,2634.0000,65535.0000,3089.8000,455.8000,0.0000,0.0000,0.0000,
373,549.68,18192.37,-18192.37,2129.4000,65535.0000,2604.2000,474.8000,0.0000,0.0000,0.0000,
374,550.18,18175.83,-18175.83,2717.0000,65535.0000,3143.0000,426.0000,0.0000,0.0000,0.0000,
375,550.68,18159.33,-18159.33,2260.6000,65535.0000,2737.6000,477.0000,0.0000,0.0000,0.0000,
376,551.18,18142.86,-18142.86,2190.2000,65535.0000,2664.0000,473.8000,0.0000,0.0000,0.0000,
377,551.68,18126.43,-18126.43,2428.4000,65535.0000,2887.8000,459.4000,0.0000,0.0000,0.0000,
378,552.18,18110.04,-18110.04,2640.8000,65535.0000,3105.2000,464.4000,0.0000,0.0000,0.0000,
379,552.68,18093.69,-18093.69,2675.0000,65535.0000,3138.2000,463.2000,0.0000,0.0000,0.0000,
380,553.18,18077.37,-18077.37,2579.6000,65535.0000,3012.4000,432.8000,0.0000,0.0000,0.0000,
381,553.68,18061.09,-18061.09,2320.4000,65535.0000,2710.4000,390.0000,0.0000,0.0000,0.0000,
382,554.18,18044.84,-18044.84,2203.8000,65535.0000,2657.8000,454.0000,0.0000,0.0000,0.0000,
383,554.67,18028.63,-18028.63,2311.6000,65535.0000,2770.6000,459.0000,0.0000,0.0000,0.0000,
384,555.17,18012.46,-18012.46,2368.6000,65535.0000,2871.6000,503.0000,0.0000,0.0000,0.0000,
385,555.67,17996.32,-17996.32,2131.2000,65535.0000,2588.0000,456.8000,0.0000,0.0000,0.0000,
386,556.17,17980.22,-17980.22,2371.2000,65535.0000,2850.8000,479.6000,0.0000,0.0000,0.0000,
387,556.66,17964.15,-17964.15,2535.2000,65535.0000,3003.4000,468.2000,0.0000,0.0000,0.0000,
388,557.16,17948.12,-17948.12,2127.6000,65535.0000,2659.6000,532.0000,0.0000,0.0000,0.0000,
389,557.66,17932.12,-17932.12,2654.2000,65535.0000,3113.0000,458.8000,0.0000,0.0000,0.0000,
390,558.16,17916.16,-17916.16,2062.8000,65535.0000,2547.4000,484.6000,0.0000,0.0000,0.0000,
391,558.65,17900.23,-17900.23,2312.0000,65535.0000,2804.8000,492.8000,0.0000,0.0000,0.0000,
392,559.15,17884.34,-17884.34,2231.4000,65535.0000,2741.2000,509.8000,0.0000,0.0000,0.0000,
393,559.64,17868.48,-17868.48,2146.8000,65535.0000,2649.6000,502.8000,0.0000,0.0000,0.0000,
394,560.14,17852.66,-17852.66,2096.2000,65535.0000,2599.8000,503.6000,0.0000,0.0000,0.0000,
395,560.64,17836.87,-17836.87,2794.2000,65535.0000,3312.8000,518.6000,0.0000,0.0000,0.0000,
396,561.13,17821.12,-17821.12,2383.6000,65535.0000,2939.4000,555.8000,0.0000,0.0000,0.0000,
397,561.63,17805.40,-17805.40,2084.4000,65535.0000,2618.6000,534.2000,0.0000,0.0000,0.0000,
398,562.12,17789.72,-17789.72,2191.2000,65535.0000,2708.4000,517.2000,0.0000,0.0000,0.0000,
399,562.62,17774.07,-17774.07,2562.4000,65535.0000,3114.0000,551.6000,0.0000,0.0000,0.0000,
400,563.11,17758.45,-17758.45,2809.4000,65535.0000,3348.8000,539.4000,0.0000,0.0000,0.0000,
401,563.61,17742.87,-17742.87,2185.2000,65535.0000,2736.2000,551.0000,0.0000,0.0000,0.0000,
402,564.10,17727.32,-17727.32,2057.4000,65535.0000,2649.6000,592.2000,0.0000,0.0000,0.0000,
403,564.60,17711.81,-17711.81,2566.0000,65535.0000,3181.4000,615.4000,0.0000,0.0000,0.0000,
404,565.09,17696.33,-17696.33,2650.2000,65535.0000,3172.2000,522.0000,0.0000,0.0000,0.0000,
405,565.58,17680.88,-17680.88,3991.8000,65535.0000,4600.6000,608.8000,0.0000,0.0000,0.0000,
406,566.08,17665.47,-17665.47,2170.6000,65535.0000,2722.0000,551.4000,0.0000,0.0000,0.0000,
407,566.57,17650.09,-17650.09,2023.2000,65535.0000,2588.0000,564.8000,0.0000,0.0000,0.0000,
408,567.06,17634.74,-17634.74,2291.0000,65535.0000,2875.4000,584.4000,0.0000,0.0000,0.0000,
409,567.56,17619.42,-17619.42,2505.8000,65535.0000,3056.4000,550.6000,0.0000,0.0000,0.0000,
410,568.05,17604.14,-17604.14,2564.6000,65535.0000,3188.4000,623.8000,0.0000,0.0000,0.0000,
411,568.54,17588.90,-17588.90,2623.4000,65535.0000,3247.0000,623.6000,0.0000,0.0000,0.0000,
412,569.03,17573.68,-17573.68,2926.0000,65535.0000,3518.6000,592.6000,0.0000,0.0000,0.0000,
413,569.52,17558.50,-17558.50,2818.2000,65535.0000,3394.8000,576.6000,0.0000,0.0000,0.0000,
414,570.02,17543.35,-17543.35,2377.2000,65535.0000,2993.4000,616.2000,0.0000,0.0000,0.0000,
415,570.51,17528.23,-17528.23,2463.6000,65535.0000,3080.4000,616.8000,0.0000,0.0000,0.0000,
416,571.00,17513.15,-17513.15,2596.2000,65535.0000,3239.8000,643.6000,0.0000,0.0000,0.0000,
417,571.49,17498.09,-17498.09,2303.8000,65535.0000,2908.2000,604.4000,0.0000,0.0000,0.0000,
418,571.98,17483.07,-17483.07,2369.0000,65535.0000,2967.8000,598.8000,0.0000,0.0000,0.0000,
419,572.47,17468.08,-17468.08,2536.6000,65535.0000,3168.8000,632.2000,0.0000,0.0000,0.0000,
420,572.96,17453.13,-17453.13,2221.4000,65535.0000,2838.8000,617.4000,0.0000,0.0000,0.0000,
421,573.45,17438.20,-17438.20,2269.8000,65535.0000,2924.8000,655.0000,0.0000,0.0000,0.0000,
422,573.94,17423.31,-17423.31,2490.0000,65535.0000,3111.2000,621.2000,0.0000,0.0000,0.0000,
423,574.43,17408.45,-17408.45,2568.0000,65535.0000,3236.8000,668.8000,0.0000,0.0000,0.0000,
424,574.92,17393.62,-17393.62,2045.4000,65535.0000,2686.6000,641.2000,0.0000,0.0000,0.0000,
425,575.41,17378.82,-17378.82,2139.2000,65535.0000,2776.8000,637.6000,0.0000,0.0000,0.0000,
426,575.90,17364.06,-17364.06,2360.0000,65535.0000,2985.8000,625.8000,0.0000,0.0000,0.0000,
427,576.39,17349.32,-17349.32,2561.6000,65535.0000,3196.8000,635.2000,0.0000,0.0000,0.0000,
428,576.88,17334.62,-17334.62,2362.2000,65535.0000,3004.8000,642.6000,0.0000,0.0000,0.0000,
429,577.37,17319.95,-17319.95,2819.0000,65535.0000,3478.8000,659.8000,0.0000,0.0000,0.0000,
430,577.86,17305.31,-17305.31,2224.4000,65535.0000,2898.8000,674.4000,0.0000,0.0000,0.0000,
431,578.35,17290.70,-17290.70,2674.6000,65535.0000,3331.4000,656.8000,0.0000,0.0000,0.0000,
432,578.83,17276.12,-17276.12,2081.8000,65535.0000,2718.0000,636.2000,0.0000,0.0000,0.0000,
433,579.32,17261.57,-17261.57,2077.2000,65535.0000,2738.6000,661.4000,0.0000,0.0000,0.0000,
434,579.81,17247.05,-17247.05,2562.0000,65535.0000,3240.4000,678.4000,0.0000,0.0000,0.0000,
435,580.30,17232.56,-17232.56,2271.6000,65535.0000,2976.0000,704.4000,0.0000,0.0000,0.0000,
436,580.78,17218.10,-17218.10,2526.6000,65535.0000,3208.8000,682.2000,0.0000,0.0000,0.0000,
437,581.27,17203.68,-17203.68,2241.0000,65535.0000,2921.8000,680.8000,0.0000,0.0000,0.0000,
438,581.76,17189.28,-17189.28,2258.4000,65535.0000,2920.6000,662.2000,0.0000,0.0000,0.0000,
439,582.24,17174.92,-17174.92,2446.4000,65535.0000,3143.4000,697.0000,0.0000,0.0000,0.0000,
440,582.73,17160.58,-17160.58,2607.0000,65535.0000,3257.6000,650.6000,0.0000,0.0000,0.0000,
441,583.22,17146.27,-17146.27,2547.0000,65535.0000,3258.4000,711.4000,0.0000,0.0000,0.0000,
442,583.70,17132.00,-17132.00,2592.0000,65535.0000,3260.0000,668.0000,0.0000,0.0000,0.0000,
443,584.19,17117.75,-17117.75,2450.4000,65535.0000,3158.0000,707.6000,0.0000,0.0000,0.0000,
444,584.67,17103.54,-17103.54,2286.0000,65535.0000,2969.4000,683.4000,0.0000,0.0000,0.0000,
445,585.16,17089.35,-17089.35,2725.6000,65535.0000,3382.2000,656.6000,0.0000,0.0000,0.0000,
446,585.64,17075.19,-17075.19,2157.0000,65535.0000,2835.0000,678.0000,0.0000,0.0000,0.0000,
447,586.13,17061.07,-17061.07,2226.2000,65535.0000,2948.8000,722.6000,0.0000,0.0000,0.0000,
448,586.61,17046.97,-17046.97,2582.4000,65535.0000,3358.8000,776.4000,0.0000,0.0000,0.0000,
449,587.10,17032.90,-17032.90,2899.0000,65535.0000,3642.8000,743.8000,0.0000,0.0000,0.0000,
450,587.58,17018.86,-17018.86,2175.2000,65535.0000,2975.6000,800.4000,0.0000,0.0000,0.0000,
451,588.07,17004.85,-17004.85,2468.6000,65535.0000,3231.8000,763.2000,0.0000,0.0000,0.0000,
452,588.55,16990.87,-16990.87,2408.6000,65535.0000,3136.4000,727.8000,0.0000,0.0000,0.0000,
453,589.04,16976.92,-16976.92,2281.4000,65535.0000,3038.2000,756.8000,0.0000,0.0000,0.0000,
454,589.52,16962.99,-16962.99,2650.6000,65535.0000,3394.8000,744.2000,0.0000,0.0000,0.0000,
455,590.00,16949.10,-16949.10,2565.0000,65535.0000,3331.0000,766.0000,0.0000,0.0000,0.0000,
456,590.48,16935.23,-16935.23,2409.6000,65535.0000,3158.2000,748.6000,0.0000,0.0000,0.0000,
457,590.97,16921.40,-16921.40,2331.8000,65535.0000,3068.0000,736.2000,0.0000,0.0000,0.0000,
458,591.45,16907.59,-16907.59,2123.0000,65535.0000,2880.4000,757.4000,0.0000,0.0000,0.0000,
459,591.93,16893.81,-16893.81,2398.2000,65535.0000,3147.0000,748.8000,0.0000,0.0000,0.0000,
460,592.42,16880.06,-16880.06,2268.0000,65535.0000,3023.2000,755.2000,0.0000,0.0000,0.0000,
461,592.90,16866.33,-16866.33,2823.2000,65535.0000,3629.4000,806.2000,0.0000,0.0000,0.0000,
462,593.38,16852.64,-16852.64,2251.6000,65535.0000,3033.4000,781.8000,0.0000,0.0000,0.0000,
463,593.86,16838.97,-16838.97,2379.0000,65535.0000,3170.6000,791.6000,0.0000,0.0000,0.0000,
464,594.34,16825.33,-16825.33,2626.8000,65535.0000,3432.4000,805.6000,0.0000,0.0000,0.0000,
465,594.82,16811.72,-16811.72,2673.8000,65535.0000,3438.4000,764.6000,0.0000,0.0000,0.0000,
466,595.30,16798.14,-16798.14,2161.6000,65535.0000,2950.2000,788.6000,0.0000,0.0000,0.0000,
467,595.78,16784.58,-16784.58,2475.4000,65535.0000,3293.2000,817.8000,0.0000,0.0000,0.0000,
468,596.27,16771.05,-16771.05,2553.6000,65535.0000,3369.2000,815.6000,0.0000,0.0000,0.0000,
469,596.75,16757.55,-16757.55,2435.8000,65535.0000,3282.0000,846.2000,0.0000,0.0000,0.0000,
470,597.23,16744.08,-16744.08,2496.4000,65535.0000,3320.8000,824.4000,0.0000,0.0000,0.0000,
471,597.71,16730.64,-16730.64,2599.2000,65535.0000,3364.8000,765.6000,0.0000,0.0000,0.0000,
472,598.19,16717.22,-16717.22,1968.8000,65535.0000,2780.6000,811.8000,0.0000,0.0000,0.0000,
473,598.67,16703.83,-16703.83,2114.4000,65535.0000,2967.8000,853.4000,0.0000,0.0000,0.0000,
474,599.14,16690.47,-16690.47,2271.8000,65535.0000,3112.2000,840.4000,0.0000,0.0000,0.0000,
475,599.62,16677.13,-16677.13,2728.2000,65535.0000,3523.0000,794.8000,0.0000,0.0000,0.0000,
476,600.10,16663.82,-16663.82,2581.2000,65535.0000,3485.6000,904.4000,0.0000,0.0000,0.0000,
477,600.58,16650.54,-16650.54,2241.8000,65535.0000,3122.2000,880.4000,0.0000,0.0000,0.0000,
478,601.06,16637.29,-16637.29,2336.2000,65535.0000,3179.4000,843.2000,0.0000,0.0000,0.0000,
479,601.54,16624.06,-16624.06,2658.0000,65535.0000,3512.2000,854.2000,0.0000,0.0000,0.0000,
480,602.02,16610.86,-16610.86,2529.0000,65535.0000,3371.4000,842.4000,0.0000,0.0000,0.0000,
481,602.49,16597.68,-16597.68,3147.8000,65535.0000,4034.2000,886.4000,0.0000,0.0000,0.0000,
482,602.97,16584.54,-16584.54,2301.8000,65535.0000,3228.8000,927.0000,0.0000,0.0000,0.0000,
483,603.45,16571.42,-16571.42,2326.8000,65535.0000,3181.4000,854.6000,0.0000,0.0000,0.0000,
484,603.93,16558.32,-16558.32,4669.4000,65535.0000,5582.8000,913.4000,0.0000,0.0000,0.0000,
485,604.40,16545.25,-16545.25,2350.6000,65535.0000,3271.4000,920.8000,0.0000,0.0000,0.0000,
486,604.88,16532.21,-16532.21,2469.8000,65535.0000,3364.0000,894.2000,0.0000,0.0000,0.0000,
487,605.36,16519.20,-16519.20,2902.0000,65535.0000,3808.0000,906.0000,0.0000,0.0000,0.0000,
488,605.83,16506.21,-16506.21,2859.2000,65535.0000,3788.8000,929.6000,0.0000,0.0000,0.0000,
489,606.31,16493.24,-16493.24,2374.4000,65535.0000,3321.0000,946.6000,0.0000,0.0000,0.0000,
490,606.78,16480.31,-16480.31,1955.2000,65535.0000,2906.2000,951.0000,0.0000,0.0000,0.0000,
491,607.26,16467.39,-16467.39,2203.4000,65535.0000,3136.4000,933.0000,0.0000,0.0000,0.0000,
492,607.74,16454.51,-16454.51,2190.2000,65535.0000,3094.2000,904.0000,0.0000,0.0000,0.0000,
493,608.21,16441.65,-16441.65,2264.8000,65535.0000,3237.2000,972.4000,0.0000,0.0000,0.0000,
494,608.69,16428.82,-16428.82,2277.2000,65535.0000,3210.6000,933.4000,0.0000,0.0000,0.0000,
495,609.16,16416.01,-16416.01,2275.4000,65535.0000,3198.4000,923.0000,0.0000,0.0000,0.0000,
496,609.64,16403.22,-16403.22,2483.2000,65535.0000,3422.8000,939.6000,0.0000,0.0000,0.0000,
497,610.11,16390.47,-16390.47,2829.8000,65535.0000,3862.6000,1032.8000,0.0000,0.0000,0.0000,
498,610.59,16377.73,-16377.73,2305.2000,65535.0000,3303.6000,998.4000,0.0000,0.0000,0.0000,
499,611.06,16365.03,-16365.03,2375.6000,65535.0000,3339.2000,963.6000,0.0000,0.0000,0.0000,
500,611.53,16352.35,-16352.35,2279.0000,65535.0000,3288.6000,1009.6000,0.0000,0.0000,0.0000,
501,612.01,16339.69,-16339.69,2509.4000,65535.0000,3613.2000,1103.8000,0.0000,0.0000,0.0000,
502,612.48,16327.06,-16327.06,3136.6000,65535.0000,4256.4000,1119.8000,0.0000,0.0000,0.0000,
503,612.95,16314.46,-16314.46,2433.0000,65535.0000,3545.4000,1112.4000,0.0000,0.0000,0.0000,
504,613.43,16301.87,-16301.87,2860.0000,65535.0000,3942.4000,1082.4000,0.0000,0.0000,0.0000,
505,613.90,16289.32,-16289.32,2781.0000,65535.0000,3827.4000,1046.4000,0.0000,0.0000,0.0000,
506,614.37,16276.79,-16276.79,2675.4000,65535.0000,3649.6000,974.2000,0.0000,0.0000,0.0000,
507,614.84,16264.28,-16264.28,2857.0000,65535.0000,3939.2000,1082.2000,0.0000,0.0000,0.0000,
508,615.32,16251.80,-16251.80,2563.4000,65535.0000,3588.0000,1024.6000,0.0000,0.0000,0.0000,
509,615.79,16239.34,-16239.34,2737.6000,65535.0000,3771.2000,1033.6000,0.0000,0.0000,0.0000,
510,616.26,16226.91,-16226.91,2214.8000,65535.0000,3196.6000,981.8000,0.0000,0.0000,0.0000,
511,616.73,16214.50,-16214.50,2490.6000,65535.0000,3554.8000,1064.2000,0.0000,0.0000,0.0000,
512,617.20,16202.12,-16202.12,2644.8000,65535.0000,3689.8000,1045.0000,0.0000,0.0000,0.0000,
513,617.67,16189.76,-16189.76,2164.4000,65535.0000,3227.2000,1062.8000,0.0000,0.0000,0.0000,
514,618.15,16177.43,-16177.43,2077.8000,65535.0000,3157.8000,1080.0000,0.0000,0.0000,0.0000,
515,618.62,16165.12,-16165.12,2092.6000,65535.0000,3189.4000,1096.8000,0.0000,0.0000,0.0000,
516,619.09,16152.83,-16152.83,2173.2000,65535.0000,3209.4000,1036.2000,0.0000,0.0000,0.0000,
517,619.56,16140.57,-16140.57,2213.4000,65535.0000,3293.0000,1079.6000,0.0000,0.0000,0.0000,
518,620.03,16128.33,-16128.33,2391.6000,65535.0000,3464.4000,1072.8000,0.0000,0.0000,0.0000,
519,620.50,16116.12,-16116.12,2190.2000,65535.0000,3270.2000,1080.0000,0.0000,0.0000,0.0000,
520,620.97,16103.93,-16103.93,2226.4000,65535.0000,3290.0000,1063.6000,0.0000,0.0000,0.0000,
521,621.44,16091.76,-16091.76,2818.0000,65535.0000,3854.6000,1036.6000,0.0000,0.0000,0.0000,
522,621.91,16079.62,-16079.62,2105.0000,65535.0000,3202.0000,1097.0000,0.0000,0.0000,0.0000,
523,622.37,16067.50,-16067.50,2196.8000,65535.0000,3244.4000,1047.6000,0.0000,0.0000,0.0000,
524,622.84,16055.41,-16055.41,2365.2000,65535.0000,3480.0000,1114.8000,0.0000,0.0000,0.0000,
525,623.31,16043.33,-16043.33,2467.0000,65535.0000,3516.6000,1049.6000,0.0000,0.0000,0.0000,
526,623.78,16031.29,-16031.29,2470.0000,65535.0000,3509.2000,1039.2000,0.0000,0.0000,0.0000,
527,624.25,16019.26,-16019.26,2404.4000,65535.0000,3482.4000,1078.0000,0.0000,0.0000,0.0000,
528,624.72,16007.26,-16007.26,2357.6000,65535.0000,3424.4000,1066.8000,0.0000,0.0000,0.0000,
529,625.18,15995.28,-15995.28,2021.2000,65535.0000,3068.8000,1047.6000,0.0000,0.0000,0.0000,
530,625.65,15983.33,-15983.33,2340.6000,65535.0000,3432.0000,1091.4000,0.0000,0.0000,0.0000,
531,626.12,15971.40,-15971.40,2173.0000,65535.0000,3250.8000,1077.8000,0.0000,0.0000,0.0000,
532,626.59,15959.49,-15959.49,2615.4000,65535.0000,3721.0000,1105.6000,0.0000,0.0000,0.0000,
533,627.05,15947.60,-15947.60,2350.8000,65535.0000,3426.8000,1076.0000,0.0000,0.0000,0.0000,
534,627.52,15935.74,-15935.74,2803.8000,65535.0000,3893.8000,1090.0000,0.0000,0.0000,0.0000,
535,627.99,15923.90,-15923.90,2176.0000,65535.0000,3231.8000,1055.8000,0.0000,0.0000,0.0000,
536,628.45,15912.09,-15912.09,2346.4000,65535.0000,3414.6000,1068.2000,0.0000,0.0000,0.0000,
537,628.92,15900.29,-15900.29,2235.0000,65535.0000,3327.4000,1092.4000,0.0000,0.0000,0.0000,
538,629.39,15888.52,-15888.52,2342.0000,65535.0000,3461.4000,1119.4000,0.0000,0.0000,0.0000,
539,629.85,15876.78,-15876.78,2275.6000,65535.0000,3395.6000,1120.0000,0.0000,0.0000,0.0000,
540,630.32,15865.05,-15865.05,2788.4000,65535.0000,3906.8000,1118.4000,0.0000,0.0000,0.0000,
541,630.78,15853.35,-15853.35,2367.0000,65535.0000,3440.4000,1073.4000,0.0000,0.0000,0.0000,
542,631.25,15841.67,-15841.67,2559.8000,65535.0000,3626.2000,1066.4000,0.0000,0.0000,0.0000,
543,631.71,15830.01,-15830.01,2121.4000,65535.0000,3245.0000,1123.6000,0.0000,0.0000,0.0000,
544,632.18,15818.37,-15818.37,2133.6000,65535.0000,3242.4000,1108.8000,0.0000,0.0000,0.0000,
545,632.64,15806.76,-15806.76,2436.6000,65535.0000,3552.0000,1115.4000,0.0000,0.0000,0.0000,
546,633.10,15795.17,-15795.17,2479.2000,65535.0000,3574.8000,1095.6000,0.0000,0.0000,0.0000,
547,633.57,15783.60,-15783.60,2043.6000,65535.0000,3179.0000,1135.4000,0.0000,0.0000,0.0000,
548,634.03,15772.06,-15772.06,2046.8000,65535.0000,3156.0000,1109.2000,0.0000,0.0000,0.0000,
549,634.50,15760.53,-15760.53,2164.8000,65535.0000,3272.2000,1107.4000,0.0000,0.0000,0.0000,
550,634.96,15749.03,-15749.03,2654.0000,65535.0000,3731.8000,1077.8000,0.0000,0.0000,0.0000,
551,635.42,15737.55,-15737.55,1887.0000,65535.0000,3033.8000,1146.8000,0.0000,0.0000,0.0000,
552,635.89,15726.09,-15726.09,2374.8000,65535.0000,3478.8000,1104.0000,0.0000,0.0000,0.0000,
553,636.35,15714.65,-15714.65,2741.4000,65535.0000,3861.4000,1120.0000,0.0000,0.0000,0.0000,
554,636.81,15703.24,-15703.24,2600.6000,65535.0000,3775.6000,1175.0000,0.0000,0.0000,0.0000,
555,637.27,15691.85,-15691.85,2346.4000,65535.0000,3494.6000,1148.2000,0.0000,0.0000,0.0000,
556,637.74,15680.47,-15680.47,2250.4000,65535.0000,3371.0000,1120.6000,0.0000,0.0000,0.0000,
557,638.20,15669.12,-15669.12,2319.8000,65535.0000,3426.4000,1106.6000,0.0000,0.0000,0.0000,
558,638.66,15657.80,-15657.80,2182.0000,65535.0000,3316.4000,1134.4000,0.0000,0.0000,0.0000,
559,639.12,15646.49,-15646.49,2393.8000,65535.0000,3509.6000,1115.8000,0.0000,0.0000,0.0000,
560,639.58,15635.20,-15635.20,1999.8000,65535.0000,3138.6000,1138.8000,0.0000,0.0000,0.0000,
561,640.04,15623.94,-15623.94,2413.4000,65535.0000,3518.2000,1104.8000,0.0000,0.0000,0.0000,
562,640.50,15612.70,-15612.70,2181.6000,65535.0000,3318.0000,1136.4000,0.0000,0.0000,0.0000,
563,640.97,15601.48,-15601.48,2317.6000,65535.0000,3457.4000,1139.8000,0.0000,0.0000,0.0000,
564,641.43,15590.28,-15590.28,2030.8000,65535.0000,3159.8000,1129.0000,0.0000,0.0000,0.0000,
565,641.89,15579.10,-15579.10,2677.2000,65535.0000,3785.0000,1107.8000,0.0000,0.0000,0.0000,
566,642.35,15567.94,-15567.94,2298.6000,65535.0000,3419.4000,1120.8000,0.0000,0.0000,0.0000,
567,642.81,15556.80,-15556.80,2486.8000,65535.0000,3642.8000,1156.0000,0.0000,0.0000,0.0000,
568,643.27,15545.69,-15545.69,2197.6000,65535.0000,3359.0000,1161.4000,0.0000,0.0000,0.0000,
569,643.72,15534.59,-15534.59,2185.4000,65535.0000,3269.4000,1084.0000,0.0000,0.0000,0.0000,
570,644.18,15523.52,-15523.52,2410.2000,65535.0000,3579.6000,1169.4000,0.0000,0.0000,0.0000,
571,644.64,15512.46,-15512.46,2252.6000,65535.0000,3402.4000,1149.8000,0.0000,0.0000,0.0000,
572,645.10,15501.43,-15501.43,2828.4000,65535.0000,3961.6000,1133.2000,0.0000,0.0000,0.0000,
573,645.56,15490.42,-15490.42,2956.8000,65535.0000,4171.0000,1214.2000,0.0000,0.0000,0.0000,
574,646.02,15479.43,-15479.43,2284.2000,65535.0000,3439.6000,1155.4000,0.0000,0.0000,0.0000,
575,646.48,15468.46,-15468.46,2211.0000,65535.0000,3355.6000,1144.6000,0.0000,0.0000,0.0000,
576,646.93,15457.51,-15457.51,2287.4000,65535.0000,3484.8000,1197.4000,0.0000,0.0000,0.0000,
577,647.39,15446.58,-15446.58,2020.8000,65535.0000,3224.2000,1203.4000,0.0000,0.0000,0.0000,
578,647.85,15435.67,-15435.67,1902.8000,65535.0000,3109.4000,1206.6000,0.0000,0.0000,0.0000,
579,648.31,15424.78,-15424.78,2233.4000,65535.0000,3450.8000,1217.4000,0.0000,0.0000,0.0000,
580,648.76,15413.91,-15413.91,2117.0000,65535.0000,3304.4000,1187.4000,0.0000,0.0000,0.0000,
581,649.22,15403.07,-15403.07,2122.0000,65535.0000,3281.0000,1159.0000,0.0000,0.0000,0.0000,
582,649.68,15392.24,-15392.24,2326.8000,65535.0000,3513.0000,1186.2000,0.0000,0.0000,0.0000,
583,650.13,15381.43,-15381.43,2416.8000,65535.0000,3626.2000,1209.4000,0.0000,0.0000,0.0000,
584,650.59,15370.64,-15370.64,2112.0000,65535.0000,3351.2000,1239.2000,0.0000,0.0000,0.0000,
585,651.05,15359.88,-15359.88,2402.4000,65535.0000,3592.0000,1189.6000,0.0000,0.0000,0.0000,
586,651.50,15349.13,-15349.13,2008.6000,65535.0000,3221.8000,1213.2000,0.0000,0.0000,0.0000,
587,651.96,15338.40,-15338.40,2310.0000,65535.0000,3544.4000,1234.4000,0.0000,0.0000,0.0000,
588,652.41,15327.69,-15327.69,2270.8000,65535.0000,3460.6000,1189.8000,0.0000,0.0000,0.0000,
589,652.87,15317.01,-15317.01,2337.0000,65535.0000,3601.2000,1264.2000,0.0000,0.0000,0.0000,
590,653.32,15306.34,-15306.34,2312.0000,65535.0000,3579.6000,1267.6000,0.0000,0.0000,0.0000,
591,653.78,15295.69,-15295.69,2376.6000,65535.0000,3612.0000,1235.4000,0.0000,0.0000,0.0000,
592,654.23,15285.06,-15285.06,2068.2000,65535.0000,3307.2000,1239.0000,0.0000,0.0000,0.0000,
593,654.69,15274.45,-15274.45,2102.6000,65535.0000,3316.2000,1213.6000,0.0000,0.0000,0.0000,
594,655.14,15263.86,-15263.86,2347.8000,65535.0000,3593.2000,1245.4000,0.0000,0.0000,0.0000,
595,655.60,15253.29,-15253.29,2734.4000,65535.0000,4025.2000,1290.8000,0.0000,0.0000,0.0000,
596,656.05,15242.74,-15242.74,2599.4000,65535.0000,3897.4000,1298.0000,0.0000,0.0000,0.0000,
597,656.50,15232.21,-15232.21,2504.8000,65535.0000,3736.0000,1231.2000,0.0000,0.0000,0.0000,
598,656.96,15221.70,-15221.70,2342.8000,65535.0000,3605.2000,1262.4000,0.0000,0.0000,0.0000,
599,657.41,15211.21,-15211.21,2266.0000,65535.0000,3561.4000,1295.4000,0.0000,0.0000,0.0000,
600,657.86,15200.74,-15200.74,2193.2000,65535.0000,3451.4000,1258.2000,0.0000,0.0000,0.0000,
601,658.32,15190.29,-15190.29,2352.2000,65535.0000,3616.8000,1264.6000,0.0000,0.0000,0.0000,
602,658.77,15179.85,-15179.85,2149.8000,65535.0000,3437.8000,1288.0000,0.0000,0.0000,0.0000,
603,659.22,15169.44,-15169.44,2648.6000,65535.0000,3945.8000,1297.2000,0.0000,0.0000,0.0000,
604,659.67,15159.04,-15159.04,2447.8000,65535.0000,3662.2000,1214.4000,0.0000,0.0000,0.0000,
605,660.12,15148.66,-15148.66,2159.6000,65535.0000,3420.4000,1260.8000,0.0000,0.0000,0.0000,
606,660.58,15138.31,-15138.31,2455.2000,65535.0000,3752.8000,1297.6000,0.0000,0.0000,0.0000,
607,661.03,15127.97,-15127.97,2502.8000,65535.0000,3729.0000,1226.2000,0.0000,0.0000,0.0000,
608,661.48,15117.65,-15117.65,2737.0000,65535.0000,4049.2000,1312.2000,0.0000,0.0000,0.0000,
609,661.93,15107.35,-15107.35,2130.8000,65535.0000,3419.4000,1288.6000,0.0000,0.0000,0.0000,
610,662.38,15097.07,-15097.07,2049.8000,65535.0000,3380.6000,1330.8000,0.0000,0.0000,0.0000,
611,662.83,15086.80,-15086.80,2527.0000,65535.0000,3821.0000,1294.0000,0.0000,0.0000,0.0000,
612,663.28,15076.56,-15076.56,2221.6000,65535.0000,3528.4000,1306.8000,0.0000,0.0000,0.0000,
613,663.73,15066.33,-15066.33,2199.0000,65535.0000,3464.8000,1265.8000,0.0000,0.0000,0.0000,
614,664.18,15056.12,-15056.12,2328.0000,65535.0000,3647.4000,1319.4000,0.0000,0.0000,0.0000,
615,664.63,15045.93,-15045.93,2049.6000,65535.0000,3347.2000,1297.6000,0.0000,0.0000,0.0000,
616,665.08,15035.76,-15035.76,2599.0000,65535.0000,3914.6000,1315.6000,0.0000,0.0000,0.0000,
617,665.53,15025.61,-15025.61,2093.6000,65535.0000,3440.6000,1347.0000,0.0000,0.0000,0.0000,
618,665.98,15015.48,-15015.48,2052.4000,65535.0000,3410.4000,1358.0000,0.0000,0.0000,0.0000,
619,666.43,15005.36,-15005.36,2152.0000,65535.0000,3484.8000,1332.8000,0.0000,0.0000,0.0000,
620,666.88,14995.27,-14995.27,2665.6000,65535.0000,4021.6000,1356.0000,0.0000,0.0000,0.0000,
621,667.33,14985.19,-14985.19,2353.8000,65535.0000,3725.0000,1371.2000,0.0000,0.0000,0.0000,
622,667.77,14975.13,-14975.13,2323.0000,65535.0000,3675.6000,1352.6000,0.0000,0.0000,0.0000,
623,668.22,14965.09,-14965.09,2242.0000,65535.0000,3630.2000,1388.2000,0.0000,0.0000,0.0000,
624,668.67,14955.06,-14955.06,2136.2000,65535.0000,3475.0000,1338.8000,0.0000,0.0000,0.0000,
625,669.12,14945.06,-14945.06,2209.8000,65535.0000,3575.8000,1366.0000,0.0000,0.0000,0.0000,
626,669.56,14935.07,-14935.07,3018.8000,65535.0000,4364.0000,1345.2000,0.0000,0.0000,0.0000,
627,670.01,14925.10,-14925.10,2088.4000,65535.0000,3499.0000,1410.6000,0.0000,0.0000,0.0000,
628,670.46,14915.15,-14915.15,2131.8000,65535.0000,3443.2000,1311.4000,0.0000,0.0000,0.0000,
629,670.91,14905.22,-14905.22,2539.4000,65535.0000,3893.4000,1354.0000,0.0000,0.0000,0.0000,
630,671.35,14895.30,-14895.30,2341.2000,65535.0000,3662.2000,1321.0000,0.0000,0.0000,0.0000,
631,671.80,14885.40,-14885.40,2288.2000,65535.0000,3653.6000,1365.4000,0.0000,0.0000,0.0000,
632,672.25,14875.52,-14875.52,2811.4000,65535.0000,4201.6000,1390.2000,0.0000,0.0000,0.0000,
633,672.69,14865.66,-14865.66,2248.6000,65535.0000,3588.0000,1339.4000,0.0000,0.0000,0.0000,
634,673.14,14855.82,-14855.82,2037.2000,65535.0000,3401.6000,1364.4000,0.0000,0.0000,0.0000,
635,673.58,14845.99,-14845.99,2189.2000,65535.0000,3528.2000,1339.0000,0.0000,0.0000,0.0000,
636,674.03,14836.18,-14836.18,2199.0000,65535.0000,3531.4000,1332.4000,0.0000,0.0000,0.0000,
637,674.47,14826.39,-14826.39,2409.8000,65535.0000,3735.4000,1325.6000,0.0000,0.0000,0.0000,
638,674.92,14816.61,-14816.61,2308.6000,65535.0000,3692.0000,1383.4000,0.0000,0.0000,0.0000,
639,675.36,14806.86,-14806.86,2293.2000,65535.0000,3643.4000,1350.2000,0.0000,0.0000,0.0000,
640,675.81,14797.12,-14797.12,2945.6000,65535.0000,4318.0000,1372.4000,0.0000,0.0000,0.0000,
641,676.25,14787.40,-14787.40,2319.4000,65535.0000,3681.8000,1362.4000,0.0000,0.0000,0.0000,
642,676.70,14777.69,-14777.69,2369.0000,65535.0000,3723.8000,1354.8000,0.0000,0.0000,0.0000,
643,677.14,14768.01,-14768.01,2247.4000,65535.0000,3642.8000,1395.4000,0.0000,0.0000,0.0000,
644,677.58,14758.34,-14758.34,2177.0000,65535.0000,3539.2000,1362.2000,0.0000,0.0000,0.0000,
645,678.03,14748.68,-14748.68,2423.4000,65535.0000,3808.2000,1384.8000,0.0000,0.0000,0.0000,
646,678.47,14739.05,-14739.05,2539.0000,65535.0000,3898.0000,1359.0000,0.0000,0.0000,0.0000,
647,678.91,14729.43,-14729.43,2732.8000,65535.0000,4014.6000,1281.8000,0.0000,0.0000,0.0000,
648,679.36,14719.83,-14719.83,2122.0000,65535.0000,3428.2000,1306.2000,0.0000,0.0000,0.0000,
649,679.80,14710.24,-14710.24,2104.6000,65535.0000,3443.4000,1338.8000,0.0000,0.0000,0.0000,
650,680.24,14700.68,-14700.68,2865.0000,65535.0000,4220.8000,1355.8000,0.0000,0.0000,0.0000,
651,680.68,14691.13,-14691.13,2154.8000,65535.0000,3530.4000,1375.6000,0.0000,0.0000,0.0000,
652,681.12,14681.59,-14681.59,2346.2000,65535.0000,3731.6000,1385.4000,0.0000,0.0000,0.0000,
653,681.57,14672.08,-14672.08,2968.4000,65535.0000,4336.8000,1368.4000,0.0000,0.0000,0.0000,
654,682.01,14662.58,-14662.58,2151.8000,65535.0000,3501.0000,1349.2000,0.0000,0.0000,0.0000,
655,682.45,14653.09,-14653.09,2779.8000,65535.0000,4155.4000,1375.6000,0.0000,0.0000,0.0000,
656,682.89,14643.63,-14643.63,2642.4000,65535.0000,3989.2000,1346.8000,0.0000,0.0000,0.0000,
657,683.33,14634.18,-14634.18,2141.6000,65535.0000,3494.2000,1352.6000,0.0000,0.0000,0.0000,
658,683.77,14624.75,-14624.75,2348.2000,65535.0000,3773.6000,1425.4000,0.0000,0.0000,0.0000,
659,684.21,14615.33,-14615.33,2281.2000,65535.0000,3676.6000,1395.4000,0.0000,0.0000,0.0000,
660,684.65,14605.93,-14605.93,2605.2000,65535.0000,3986.8000,1381.6000,0.0000,0.0000,0.0000,
661,685.09,14596.55,-14596.55,2259.0000,65535.0000,3657.2000,1398.2000,0.0000,0.0000,0.0000,
662,685.53,14587.18,-14587.18,2617.4000,65535.0000,3995.8000,1378.4000,0.0000,0.0000,0.0000,
663,685.97,14577.83,-14577.83,2362.6000,65535.0000,3731.4000,1368.8000,0.0000,0.0000,0.0000,
664,686.41,14568.50,-14568.50,2815.0000,65535.0000,4169.2000,1354.2000,0.0000,0.0000,0.0000,
665,686.85,14559.18,-14559.18,2513.6000,65535.0000,3810.0000,1296.4000,0.0000,0.0000,0.0000,
666,687.29,14549.88,-14549.88,5444.8000,65535.0000,6828.8000,1384.0000,0.0000,0.0000,0.0000,
667,687.73,14540.60,-14540.60,2643.8000,65535.0000,4010.4000,1366.6000,0.0000,0.0000,0.0000,
668,688.17,14531.33,-14531.33,2557.4000,65535.0000,3903.4000,1346.0000,0.0000,0.0000,0.0000,
669,688.61,14522.08,-14522.08,2814.6000,65535.0000,4200.6000,1386.0000,0.0000,0.0000,0.0000,
670,689.04,14512.84,-14512.84,2752.6000,65535.0000,4102.4000,1349.8000,0.0000,0.0000,0.0000,
671,689.48,14503.63,-14503.63,2478.0000,65535.0000,3807.0000,1329.0000,0.0000,0.0000,0.0000,
672,689.92,14494.42,-14494.42,3201.6000,65535.0000,4579.4000,1377.8000,0.0000,0.0000,0.0000,
673,690.36,14485.24,-14485.24,2305.6000,65535.0000,3667.4000,1361.8000,0.0000,0.0000,0.0000,
674,690.80,14476.06,-14476.06,2349.2000,65535.0000,3673.8000,1324.6000,0.0000,0.0000,0.0000,
675,691.23,14466.91,-14466.91,2186.4000,65535.0000,3517.4000,1331.0000,0.0000,0.0000,0.0000,
676,691.67,14457.77,-14457.77,2414.2000,65535.0000,3771.6000,1357.4000,0.0000,0.0000,0.0000,
677,692.11,14448.65,-14448.65,2517.8000,65535.0000,3901.0000,1383.2000,0.0000,0.0000,0.0000,
678,692.54,14439.54,-14439.54,2337.8000,65535.0000,3683.0000,1345.2000,0.0000,0.0000,0.0000,
679,692.98,14430.45,-14430.45,2616.0000,65535.0000,3985.0000,1369.0000,0.0000,0.0000,0.0000,
680,693.42,14421.37,-14421.37,2376.6000,65535.0000,3708.8000,1332.2000,0.0000,0.0000,0.0000,
681,693.85,14412.31,-14412.31,2262.2000,65535.0000,3593.6000,1331.4000,0.0000,0.0000,0.0000,
682,694.29,14403.27,-14403.27,3084.6000,65535.0000,4443.4000,1358.8000,0.0000,0.0000,0.0000,
683,694.72,14394.24,-14394.24,2479.4000,65535.0000,3809.4000,1330.0000,0.0000,0.0000,0.0000,
684,695.16,14385.23,-14385.23,2549.6000,65535.0000,3906.0000,1356.4000,0.0000,0.0000,0.0000,
685,695.59,14376.23,-14376.23,2423.6000,65535.0000,3776.2000,1352.6000,0.0000,0.0000,0.0000,
686,696.03,14367.25,-14367.25,2113.6000,65535.0000,3469.2000,1355.6000,0.0000,0.0000,0.0000,
687,696.46,14358.29,-14358.29,2597.8000,65535.0000,3981.0000,1383.2000,0.0000,0.0000,0.0000,
688,696.90,14349.34,-14349.34,2026.6000,65535.0000,3352.6000,1326.0000,0.0000,0.0000,0.0000,
689,697.33,14340.40,-14340.40,2217.0000,65535.0000,3518.4000,1301.4000,0.0000,0.0000,0.0000,
690,697.76,14331.48,-14331.48,2415.8000,65535.0000,3753.8000,1338.0000,0.0000,0.0000,0.0000,
691,698.20,14322.58,-14322.58,3310.2000,65535.0000,4642.2000,1332.0000,0.0000,0.0000,0.0000,
692,698.63,14313.69,-14313.69,2271.6000,65535.0000,3538.2000,1266.6000,0.0000,0.0000,0.0000,
693,699.07,14304.82,-14304.82,3186.8000,65535.0000,4535.8000,1349.0000,0.0000,0.0000,0.0000,
694,699.50,14295.96,-14295.96,2861.0000,65535.0000,4205.4000,1344.4000,0.0000,0.0000,0.0000,
695,699.93,14287.12,-14287.12,2507.4000,65535.0000,3838.4000,1331.0000,0.0000,0.0000,0.0000,
696,700.36,14278.29,-14278.29,2333.0000,65535.0000,3652.0000,1319.0000,0.0000,0.0000,0.0000,
697,700.80,14269.48,-14269.48,3118.0000,65535.0000,4462.0000,1344.0000,0.0000,0.0000,0.0000,
698,701.23,14260.68,-14260.68,2393.2000,65535.0000,3718.8000,1325.6000,0.0000,0.0000,0.0000,
699,701.66,14251.90,-14251.90,2706.0000,65535.0000,4023.8000,1317.8000,0.0000,0.0000,0.0000,
700,702.09,14243.13,-14243.13,2892.0000,65535.0000,4250.4000,1358.4000,0.0000,0.0000,0.0000,
701,702.52,14234.38,-14234.38,2275.0000,65535.0000,3582.0000,1307.0000,0.0000,0.0000,0.0000,
702,702.96,14225.64,-14225.64,2380.8000,65535.0000,3676.4000,1295.6000,0.0000,0.0000,0.0000,
703,703.39,14216.92,-14216.92,2345.4000,65535.0000,3640.2000,1294.8000,0.0000,0.0000,0.0000,
704,703.82,14208.21,-14208.21,2384.0000,65535.0000,3707.8000,1323.8000,0.0000,0.0000,0.0000,
705,704.25,14199.52,-14199.52,2436.0000,65535.0000,3737.2000,1301.2000,0.0000,0.0000,0.0000,
706,704.68,14190.84,-14190.84,2458.8000,65535.0000,3728.0000,1269.2000,0.0000,0.0000,0.0000,
707,705.11,14182.18,-14182.18,2298.0000,65535.0000,3625.6000,1327.6000,0.0000,0.0000,0.0000,
708,705.54,14173.53,-14173.53,2516.4000,65535.0000,3813.0000,1296.6000,0.0000,0.0000,0.0000,
709,705.97,14164.90,-14164.90,3145.4000,65535.0000,4464.0000,1318.6000,0.0000,0.0000,0.0000,
710,706.40,14156.28,-14156.28,2312.8000,65535.0000,3543.8000,1231.0000,0.0000,0.0000,0.0000,
711,706.83,14147.68,-14147.68,2217.4000,65535.0000,3543.4000,1326.0000,0.0000,0.0000,0.0000,
712,707.26,14139.09,-14139.09,2159.8000,65535.0000,3458.2000,1298.4000,0.0000,0.0000,0.0000,
713,707.69,14130.52,-14130.52,2373.0000,65535.0000,3665.6000,1292.6000,0.0000,0.0000,0.0000,
714,708.12,14121.96,-14121.96,2597.2000,65535.0000,3949.4000,1352.2000,0.0000,0.0000,0.0000,
715,708.55,14113.42,-14113.42,2227.2000,65535.0000,3480.2000,1253.0000,0.0000,0.0000,0.0000,
716,708.97,14104.88,-14104.88,2116.0000,65535.0000,3408.4000,1292.4000,0.0000,0.0000,0.0000,
717,709.40,14096.37,-14096.37,2215.8000,65535.0000,3544.0000,1328.2000,0.0000,0.0000,0.0000,
718,709.83,14087.87,-14087.87,2403.2000,65535.0000,3704.8000,1301.6000,0.0000,0.0000,0.0000,
719,710.26,14079.38,-14079.38,2424.4000,65535.0000,3739.8000,1315.4000,0.0000,0.0000,0.0000,
720,710.69,14070.91,-14070.91,3318.0000,65535.0000,4675.2000,1357.2000,0.0000,0.0000,0.0000,
721,711.11,14062.45,-14062.45,2440.6000,65535.0000,3773.8000,1333.2000,0.0000,0.0000,0.0000,
722,711.54,14054.01,-14054.01,2572.8000,65535.0000,3858.6000,1285.8000,0.0000,0.0000,0.0000,
723,711.97,14045.58,-14045.58,2491.6000,65535.0000,3828.8000,1337.2000,0.0000,0.0000,0.0000,
724,712.39,14037.16,-14037.16,2301.2000,65535.0000,3648.4000,1347.2000,0.0000,0.0000,0.0000,
725,712.82,14028.76,-14028.76,2669.4000,65535.0000,3997.0000,1327.6000,0.0000,0.0000,0.0000,
726,713.25,14020.38,-14020.38,3149.4000,65535.0000,4416.0000,1266.6000,0.0000,0.0000,0.0000,
727,713.67,14012.00,-14012.00,2387.8000,65535.0000,3653.4000,1265.6000,0.0000,0.0000,0.0000,
728,714.10,14003.64,-14003.64,2534.4000,65535.0000,3814.2000,1279.8000,0.0000,0.0000,0.0000,
729,714.53,13995.30,-13995.30,2165.8000,65535.0000,3427.6000,1261.8000,0.0000,0.0000,0.0000,
730,714.95,13986.97,-13986.97,2213.6000,65535.0000,3520.0000,1306.4000,0.0000,0.0000,0.0000,
731,715.38,13978.65,-13978.65,2444.2000,65535.0000,3767.0000,1322.8000,0.0000,0.0000,0.0000,
732,715.80,13970.35,-13970.35,2839.8000,65535.0000,4139.2000,1299.4000,0.0000,0.0000,0.0000,
733,716.23,13962.06,-13962.06,2356.2000,65535.0000,3598.4000,1242.2000,0.0000,0.0000,0.0000,
734,716.65,13953.79,-13953.79,2201.8000,65535.0000,3477.0000,1275.2000,0.0000,0.0000,0.0000,
735,717.08,13945.53,-13945.53,2353.6000,65535.0000,3576.6000,1223.0000,0.0000,0.0000,0.0000,
736,717.50,13937.28,-13937.28,2442.8000,65535.0000,3725.2000,1282.4000,0.0000,0.0000,0.0000,
737,717.92,13929.05,-13929.05,3025.6000,65535.0000,4292.8000,1267.2000,0.0000,0.0000,0.0000,
738,718.35,13920.83,-13920.83,2052.4000,65535.0000,3297.0000,1244.6000,0.0000,0.0000,0.0000,
739,718.77,13912.63,-13912.63,2147.6000,65535.0000,3403.4000,1255.8000,0.0000,0.0000,0.0000,
740,719.20,13904.43,-13904.43,2517.0000,65535.0000,3865.8000,1348.8000,0.0000,0.0000,0.0000,
741,719.62,13896.26,-13896.26,2019.8000,65535.0000,3353.0000,1333.2000,0.0000,0.0000,0.0000,
742,720.04,13888.09,-13888.09,2236.8000,65535.0000,3504.2000,1267.4000,0.0000,0.0000,0.0000,
743,720.46,13879.94,-13879.94,2029.0000,65535.0000,3320.2000,1291.2000,0.0000,0.0000,0.0000,
744,720.89,13871.81,-13871.81,2150.4000,65535.0000,3388.0000,1237.6000,0.0000,0.0000,0.0000,
745,721.31,13863.68,-13863.68,2396.2000,65535.0000,3689.2000,1293.0000,0.0000,0.0000,0.0000,
746,721.73,13855.57,-13855.57,2121.2000,65535.0000,3421.0000,1299.8000,0.0000,0.0000,0.0000,
747,722.15,13847.48,-13847.48,2361.2000,65535.0000,3645.2000,1284.0000,0.0000,0.0000,0.0000,
748,722.57,13839.39,-13839.39,2656.6000,65535.0000,3916.0000,1259.4000,0.0000,0.0000,0.0000,
749,723.00,13831.33,-13831.33,2286.8000,65535.0000,3542.8000,1256.0000,0.0000,0.0000,0.0000,
750,723.42,13823.27,-13823.27,2263.8000,65535.0000,3509.0000,1245.2000,0.0000,0.0000,0.0000,
751,723.84,13815.23,-13815.23,2535.6000,65535.0000,3837.4000,1301.8000,0.0000,0.0000,0.0000,
752,724.26,13807.20,-13807.20,2959.2000,65535.0000,4267.8000,1308.6000,0.0000,0.0000,0.0000,
753,724.68,13799.18,-13799.18,2396.0000,65535.0000,3650.8000,1254.8000,0.0000,0.0000,0.0000,
754,725.10,13791.18,-13791.18,2301.6000,65535.0000,3604.4000,1302.8000,0.0000,0.0000,0.0000,
755,725.52,13783.19,-13783.19,2102.4000,65535.0000,3367.8000,1265.4000,0.0000,0.0000,0.0000,
756,725.94,13775.22,-13775.22,2322.6000,65535.0000,3583.0000,1260.4000,0.0000,0.0000,0.0000,
757,726.36,13767.26,-13767.26,2566.2000,65535.0000,3839.4000,1273.2000,0.0000,0.0000,0.0000,
758,726.78,13759.31,-13759.31,2224.0000,65535.0000,3478.4000,1254.4000,0.0000,0.0000,0.0000,
759,727.20,13751.37,-13751.37,2682.6000,65535.0000,3961.6000,1279.0000,0.0000,0.0000,0.0000,
760,727.62,13743.45,-13743.45,2199.2000,65535.0000,3430.4000,1231.2000,0.0000,0.0000,0.0000,
761,728.04,13735.54,-13735.54,2171.2000,65535.0000,3388.8000,1217.6000,0.0000,0.0000,0.0000,
762,728.46,13727.64,-13727.64,2103.4000,65535.0000,3398.0000,1294.6000,0.0000,0.0000,0.0000,
763,728.88,13719.76,-13719.76,2564.0000,65535.0000,3810.2000,1246.2000,0.0000,0.0000,0.0000,
764,729.29,13711.89,-13711.89,3007.2000,65535.0000,4320.0000,1312.8000,0.0000,0.0000,0.0000,
765,729.71,13704.03,-13704.03,2357.8000,65535.0000,3678.8000,1321.0000,0.0000,0.0000,0.0000,
766,730.13,13696.19,-13696.19,2348.6000,65535.0000,3627.2000,1278.6000,0.0000,0.0000,0.0000,
767,730.55,13688.35,-13688.35,2600.2000,65535.0000,3878.6000,1278.4000,0.0000,0.0000,0.0000,
768,730.97,13680.53,-13680.53,2246.8000,65535.0000,3499.4000,1252.6000,0.0000,0.0000,0.0000,
769,731.38,13672.73,-13672.73,2503.0000,65535.0000,3826.4000,1323.4000,0.0000,0.0000,0.0000,
770,731.80,13664.94,-13664.94,2023.4000,65535.0000,3267.0000,1243.6000,0.0000,0.0000,0.0000,
771,732.22,13657.16,-13657.16,2377.0000,65535.0000,3644.0000,1267.0000,0.0000,0.0000,0.0000,
772,732.63,13649.39,-13649.39,2555.8000,65535.0000,3829.0000,1273.2000,0.0000,0.0000,0.0000,
773,733.05,13641.63,-13641.63,2324.8000,65535.0000,3594.2000,1269.4000,0.0000,0.0000,0.0000,
774,733.47,13633.89,-13633.89,2621.4000,65535.0000,3849.6000,1228.2000,0.0000,0.0000,0.0000,
775,733.88,13626.16,-13626.16,2245.6000,65535.0000,3533.8000,1288.2000,0.0000,0.0000,0.0000,
776,734.30,13618.45,-13618.45,2103.4000,65535.0000,3381.6000,1278.2000,0.0000,0.0000,0.0000,
777,734.71,13610.74,-13610.74,2611.0000,65535.0000,3880.6000,1269.6000,0.0000,0.0000,0.0000,
778,735.13,13603.05,-13603.05,2346.2000,65535.0000,3618.6000,1272.4000,0.0000,0.0000,0.0000,
779,735.54,13595.37,-13595.37,2374.4000,65535.0000,3643.0000,1268.6000,0.0000,0.0000,0.0000,
780,735.96,13587.71,-13587.71,2468.8000,65535.0000,3756.4000,1287.6000,0.0000,0.0000,0.0000,
781,736.37,13580.05,-13580.05,2123.4000,65535.0000,3403.0000,1279.6000,0.0000,0.0000,0.0000,
782,736.79,13572.41,-13572.41,2482.4000,65535.0000,3761.4000,1279.0000,0.0000,0.0000,0.0000,
783,737.20,13564.78,-13564.78,2242.8000,65535.0000,3528.2000,1285.4000,0.0000,0.0000,0.0000,
784,737.62,13557.17,-13557.17,2608.6000,65535.0000,3849.0000,1240.4000,0.0000,0.0000,0.0000,
785,738.03,13549.56,-13549.56,2209.2000,65535.0000,3445.6000,1236.4000,0.0000,0.0000,0.0000,
786,738.44,13541.97,-13541.97,2727.6000,65535.0000,3991.4000,1263.8000,0.0000,0.0000,0.0000,
787,738.86,13534.39,-13534.39,3376.8000,65535.0000,4706.6000,1329.8000,0.0000,0.0000,0.0000,
788,739.27,13526.83,-13526.83,2240.4000,65535.0000,3548.6000,1308.2000,0.0000,0.0000,0.0000,
789,739.68,13519.27,-13519.27,2468.6000,65535.0000,3760.6000,1292.0000,0.0000,0.0000,0.0000,
790,740.10,13511.73,-13511.73,2305.0000,65535.0000,3556.8000,1251.8000,0.0000,0.0000,0.0000,
791,740.51,13504.20,-13504.20,2299.4000,65535.0000,3601.4000,1302.0000,0.0000,0.0000,0.0000,
792,740.92,13496.69,-13496.69,2291.8000,65535.0000,3611.2000,1319.4000,0.0000,0.0000,0.0000,
793,741.33,13489.18,-13489.18,3010.8000,65535.0000,4336.6000,1325.8000,0.0000,0.0000,0.0000,
794,741.75,13481.69,-13481.69,3015.4000,65535.0000,4326.6000,1311.2000,0.0000,0.0000,0.0000,
795,742.16,13474.21,-13474.21,2185.2000,65535.0000,3490.6000,1305.4000,0.0000,0.0000,0.0000,
796,742.57,13466.74,-13466.74,2237.0000,65535.0000,3520.8000,1283.8000,0.0000,0.0000,0.0000,
797,742.98,13459.28,-13459.28,2309.6000,65535.0000,3571.4000,1261.8000,0.0000,0.0000,0.0000,
798,743.39,13451.84,-13451.84,2267.2000,65535.0000,3547.6000,1280.4000,0.0000,0.0000,0.0000,
799,743.80,13444.40,-13444.40,2766.8000,65535.0000,4045.2000,1278.4000,0.0000,0.0000,0.0000,
800,744.21,13436.98,-13436.98,2266.2000,65535.0000,3538.0000,1271.8000,0.0000,0.0000,0.0000,
801,744.63,13429.58,-13429.58,2446.8000,65535.0000,3720.2000,1273.4000,0.0000,0.0000,0.0000,
802,745.04,13422.18,-13422.18,2612.2000,65535.0000,3929.4000,1317.2000,0.0000,0.0000,0.0000,
803,745.45,13414.79,-13414.79,2697.8000,65535.0000,4003.0000,1305.2000,0.0000,0.0000,0.0000,
804,745.86,13407.42,-13407.42,2488.8000,65535.0000,3745.0000,1256.2000,0.0000,0.0000,0.0000,
805,746.27,13400.06,-13400.06,2431.0000,65535.0000,3769.2000,1338.2000,0.0000,0.0000,0.0000,
806,746.67,13392.71,-13392.71,2636.8000,65535.0000,3920.2000,1283.4000,0.0000,0.0000,0.0000,
807,747.08,13385.38,-13385.38,2198.8000,65535.0000,3471.6000,1272.8000,0.0000,0.0000,0.0000,
808,747.49,13378.05,-13378.05,2532.6000,65535.0000,3787.2000,1254.6000,0.0000,0.0000,0.0000,
809,747.90,13370.74,-13370.74,2354.6000,65535.0000,3668.2000,1313.6000,0.0000,0.0000,0.0000,
810,748.31,13363.44,-13363.44,3742.4000,65535.0000,4952.6000,1210.2000,0.0000,0.0000,0.0000,
811,748.72,13356.15,-13356.15,2359.2000,65535.0000,3611.2000,1252.0000,0.0000,0.0000,0.0000,
812,749.13,13348.87,-13348.87,2627.4000,65535.0000,3903.2000,1275.8000,0.0000,0.0000,0.0000,
813,749.54,13341.60,-13341.60,2343.2000,65535.0000,3585.8000,1242.6000,0.0000,0.0000,0.0000,
814,749.94,13334.35,-13334.35,2561.4000,65535.0000,3786.8000,1225.4000,0.0000,0.0000,0.0000,
815,750.35,13327.10,-13327.10,2405.4000,65535.0000,3623.0000,1217.6000,0.0000,0.0000,0.0000,
816,750.76,13319.87,-13319.87,3117.6000,65535.0000,4418.2000,1300.6000,0.0000,0.0000,0.0000,
817,751.17,13312.65,-13312.65,2447.6000,65535.0000,3724.0000,1276.4000,0.0000,0.0000,0.0000,
818,751.57,13305.45,-13305.45,2556.8000,65535.0000,3808.2000,1251.4000,0.0000,0.0000,0.0000,
819,751.98,13298.25,-13298.25,2387.2000,65535.0000,3623.0000,1235.8000,0.0000,0.0000,0.0000,
820,752.39,13291.06,-13291.06,2368.0000,65535.0000,3652.2000,1284.2000,0.0000,0.0000,0.0000,
821,752.79,13283.89,-13283.89,2708.0000,65535.0000,3944.8000,1236.8000,0.0000,0.0000,0.0000,
822,753.20,13276.73,-13276.73,2483.8000,65535.0000,3724.0000,1240.2000,0.0000,0.0000,0.0000,
823,753.60,13269.58,-13269.58,2812.0000,65535.0000,4007.4000,1195.4000,0.0000,0.0000,0.0000,
824,754.01,13262.44,-13262.44,2757.2000,65535.0000,3930.4000,1173.2000,0.0000,0.0000,0.0000,
825,754.41,13255.31,-13255.31,2399.2000,65535.0000,3618.6000,1219.4000,0.0000,0.0000,0.0000,
826,754.82,13248.19,-13248.19,2603.0000,65535.0000,3850.2000,1247.2000,0.0000,0.0000,0.0000,
827,755.22,13241.09,-13241.09,2789.4000,65535.0000,4002.2000,1212.8000,0.0000,0.0000,0.0000,
828,755.63,13233.99,-13233.99,2577.2000,65535.0000,3821.8000,1244.6000,0.0000,0.0000,0.0000,
829,756.03,13226.91,-13226.91,2332.8000,65535.0000,3527.2000,1194.4000,0.0000,0.0000,0.0000,
830,756.44,13219.84,-13219.84,2870.6000,65535.0000,4080.0000,1209.4000,0.0000,0.0000,0.0000,
831,756.84,13212.78,-13212.78,2616.6000,65535.0000,3823.0000,1206.4000,0.0000,0.0000,0.0000,
832,757.25,13205.73,-13205.73,2574.6000,65535.0000,3753.2000,1178.6000,0.0000,0.0000,0.0000,
833,757.65,13198.69,-13198.69,2771.4000,65535.0000,3967.4000,1196.0000,0.0000,0.0000,0.0000,
834,758.05,13191.67,-13191.67,2252.8000,65535.0000,3474.0000,1221.2000,0.0000,0.0000,0.0000,
835,758.46,13184.65,-13184.65,2407.0000,65535.0000,3585.0000,1178.0000,0.0000,0.0000,0.0000,
836,758.86,13177.65,-13177.65,2859.0000,65535.0000,4006.2000,1147.2000,0.0000,0.0000,0.0000,
837,759.26,13170.66,-13170.66,2192.4000,65535.0000,3360.2000,1167.8000,0.0000,0.0000,0.0000,
838,759.67,13163.67,-13163.67,2436.8000,65535.0000,3585.4000,1148.6000,0.0000,0.0000,0.0000,
839,760.07,13156.70,-13156.70,3232.8000,65535.0000,4422.0000,1189.2000,0.0000,0.0000,0.0000,
840,760.47,13149.74,-13149.74,2305.8000,65535.0000,3474.0000,1168.2000,0.0000,0.0000,0.0000,
841,760.87,13142.80,-13142.80,2285.2000,65535.0000,3402.8000,1117.6000,0.0000,0.0000,0.0000,
842,761.28,13135.86,-13135.86,2357.8000,65535.0000,3546.4000,1188.6000,0.0000,0.0000,0.0000,
843,761.68,13128.93,-13128.93,2442.4000,65535.0000,3666.6000,1224.2000,0.0000,0.0000,0.0000,
844,762.08,13122.02,-13122.02,2669.6000,65535.0000,3822.8000,1153.2000,0.0000,0.0000,0.0000,
845,762.48,13115.11,-13115.11,2501.8000,65535.0000,3723.8000,1222.0000,0.0000,0.0000,0.0000,
846,762.88,13108.22,-13108.22,2869.2000,65535.0000,3981.4000,1112.2000,0.0000,0.0000,0.0000,
847,763.28,13101.33,-13101.33,2761.8000,65535.0000,3907.6000,1145.8000,0.0000,0.0000,0.0000,
848,763.68,13094.46,-13094.46,2620.6000,65535.0000,3819.4000,1198.8000,0.0000,0.0000,0.0000,
849,764.08,13087.60,-13087.60,2690.4000,65535.0000,3824.6000,1134.2000,0.0000,0.0000,0.0000,
850,764.48,13080.75,-13080.75,3014.4000,65535.0000,4166.0000,1151.6000,0.0000,0.0000,0.0000,
851,764.88,13073.91,-13073.91,2210.0000,65535.0000,3369.6000,1159.6000,0.0000,0.0000,0.0000,
852,765.28,13067.08,-13067.08,2411.4000,65535.0000,3517.0000,1105.6000,0.0000,0.0000,0.0000,
853,765.68,13060.26,-13060.26,2342.2000,65535.0000,3482.2000,1140.0000,0.0000,0.0000,0.0000,
854,766.08,13053.45,-13053.45,2536.4000,65535.0000,3704.2000,1167.8000,0.0000,0.0000,0.0000,
855,766.48,13046.66,-13046.66,2207.0000,65535.0000,3331.0000,1124.0000,0.0000,0.0000,0.0000,
856,766.88,13039.87,-13039.87,2817.6000,65535.0000,3897.8000,1080.2000,0.0000,0.0000,0.0000,
857,767.28,13033.10,-13033.10,2693.0000,65535.0000,3805.8000,1112.8000,0.0000,0.0000,0.0000,
858,767.68,13026.33,-13026.33,2530.6000,65535.0000,3644.2000,1113.6000,0.0000,0.0000,0.0000,
859,768.07,13019.58,-13019.58,3567.0000,65535.0000,4717.4000,1150.4000,0.0000,0.0000,0.0000,
860,768.47,13012.83,-13012.83,2550.0000,65535.0000,3652.2000,1102.2000,0.0000,0.0000,0.0000,
861,768.87,13006.10,-13006.10,2157.2000,65535.0000,3213.4000,1056.2000,0.0000,0.0000,0.0000,
862,769.27,12999.38,-12999.38,2375.6000,65535.0000,3481.6000,1106.0000,0.0000,0.0000,0.0000,
863,769.66,12992.67,-12992.67,2596.2000,65535.0000,3658.4000,1062.2000,0.0000,0.0000,0.0000,
864,770.06,12985.96,-12985.96,2587.6000,65535.0000,3662.0000,1074.4000,0.0000,0.0000,0.0000,
865,770.46,12979.27,-12979.27,3073.6000,65535.0000,4143.0000,1069.4000,0.0000,0.0000,0.0000,
866,770.86,12972.59,-12972.59,2896.8000,65535.0000,4021.4000,1124.6000,0.0000,0.0000,0.0000,
867,771.25,12965.92,-12965.92,2762.4000,65535.0000,3848.2000,1085.8000,0.0000,0.0000,0.0000,
868,771.65,12959.26,-12959.26,2342.4000,65535.0000,3372.4000,1030.0000,0.0000,0.0000,0.0000,
869,772.04,12952.61,-12952.61,2787.0000,65535.0000,3796.8000,1009.8000,0.0000,0.0000,0.0000,
870,772.44,12945.98,-12945.98,2662.4000,65535.0000,3674.8000,1012.4000,0.0000,0.0000,0.0000,
871,772.84,12939.35,-12939.35,2448.0000,65535.0000,3497.4000,1049.4000,0.0000,0.0000,0.0000,
872,773.23,12932.73,-12932.73,2363.6000,65535.0000,3432.2000,1068.6000,0.0000,0.0000,0.0000,
873,773.63,12926.12,-12926.12,2486.2000,65535.0000,3530.0000,1043.8000,0.0000,0.0000,0.0000,
874,774.02,12919.52,-12919.52,2307.8000,65535.0000,3344.8000,1037.0000,0.0000,0.0000,0.0000,
875,774.42,12912.94,-12912.94,2239.2000,65535.0000,3268.2000,1029.0000,0.0000,0.0000,0.0000,
876,774.81,12906.36,-12906.36,2665.8000,65535.0000,3691.4000,1025.6000,0.0000,0.0000,0.0000,
877,775.21,12899.79,-12899.79,2475.2000,65535.0000,3533.8000,1058.6000,0.0000,0.0000,0.0000,
878,775.60,12893.24,-12893.24,2867.2000,65535.0000,3862.6000,995.4000,0.0000,0.0000,0.0000,
879,775.99,12886.69,-12886.69,2217.8000,65535.0000,3245.2000,1027.4000,0.0000,0.0000,0.0000,
880,776.39,12880.15,-12880.15,2564.8000,65535.0000,3578.2000,1013.4000,0.0000,0.0000,0.0000,
881,776.78,12873.63,-12873.63,2857.8000,65535.0000,3879.8000,1022.0000,0.0000,0.0000,0.0000,
882,777.18,12867.11,-12867.11,2912.8000,65535.0000,3930.6000,1017.8000,0.0000,0.0000,0.0000,
883,777.57,12860.61,-12860.61,2473.2000,65535.0000,3511.2000,1038.0000,0.0000,0.0000,0.0000,
884,777.96,12854.11,-12854.11,2706.8000,65535.0000,3751.6000,1044.8000,0.0000,0.0000,0.0000,
885,778.35,12847.62,-12847.62,2888.8000,65535.0000,3957.0000,1068.2000,0.0000,0.0000,0.0000,
886,778.75,12841.15,-12841.15,3008.6000,65535.0000,4020.6000,1012.0000,0.0000,0.0000,0.0000,
887,779.14,12834.68,-12834.68,2414.2000,65535.0000,3356.4000,942.2000,0.0000,0.0000,0.0000,
888,779.53,12828.23,-12828.23,2330.6000,65535.0000,3329.4000,998.8000,0.0000,0.0000,0.0000,
889,779.92,12821.78,-12821.78,2256.4000,65535.0000,3265.6000,1009.2000,0.0000,0.0000,0.0000,
890,780.31,12815.35,-12815.35,2475.2000,65535.0000,3432.0000,956.8000,0.0000,0.0000,0.0000,
891,780.71,12808.92,-12808.92,2349.4000,65535.0000,3343.2000,993.8000,0.0000,0.0000,0.0000,
892,781.10,12802.50,-12802.50,2262.6000,65535.0000,3258.6000,996.0000,0.0000,0.0000,0.0000,
893,781.49,12796.10,-12796.10,2344.4000,65535.0000,3359.2000,1014.8000,0.0000,0.0000,0.0000,
894,781.88,12789.70,-12789.70,2568.6000,65535.0000,3561.2000,992.6000,0.0000,0.0000,0.0000,
895,782.27,12783.32,-12783.32,2610.8000,65535.0000,3591.6000,980.8000,0.0000,0.0000,0.0000,
896,782.66,12776.94,-12776.94,2970.2000,65535.0000,3974.0000,1003.8000,0.0000,0.0000,0.0000,
897,783.05,12770.57,-12770.57,2791.8000,65535.0000,3779.4000,987.6000,0.0000,0.0000,0.0000,
898,783.44,12764.22,-12764.22,3532.2000,65535.0000,4475.6000,943.4000,0.0000,0.0000,0.0000,
899,783.83,12757.87,-12757.87,2454.4000,65535.0000,3374.8000,920.4000,0.0000,0.0000,0.0000,
900,784.22,12751.53,-12751.53,2496.6000,65535.0000,3469.6000,973.0000,0.0000,0.0000,0.0000,
901,784.61,12745.20,-12745.20,2394.0000,65535.0000,3363.8000,969.8000,0.0000,0.0000,0.0000,
902,785.00,12738.89,-12738.89,2318.4000,65535.0000,3316.6000,998.2000,0.0000,0.0000,0.0000,
903,785.39,12732.58,-12732.58,2314.4000,65535.0000,3294.2000,979.8000,0.0000,0.0000,0.0000,
904,785.78,12726.28,-12726.28,2503.2000,65535.0000,3475.2000,972.0000,0.0000,0.0000,0.0000,
905,786.16,12719.99,-12719.99,2296.2000,65535.0000,3231.6000,935.4000,0.0000,0.0000,0.0000,
906,786.55,12713.71,-12713.71,2576.4000,65535.0000,3527.8000,951.4000,0.0000,0.0000,0.0000,
907,786.94,12707.44,-12707.44,2580.8000,65535.0000,3477.6000,896.8000,0.0000,0.0000,0.0000,
908,787.33,12701.18,-12701.18,2638.0000,65535.0000,3580.2000,942.2000,0.0000,0.0000,0.0000,
909,787.72,12694.93,-12694.93,2507.6000,65535.0000,3449.0000,941.4000,0.0000,0.0000,0.0000,
910,788.10,12688.69,-12688.69,2397.4000,65535.0000,3317.2000,919.8000,0.0000,0.0000,0.0000,
911,788.49,12682.46,-12682.46,2552.8000,65535.0000,3478.4000,925.6000,0.0000,0.0000,0.0000,
912,788.88,12676.24,-12676.24,2262.2000,65535.0000,3186.2000,924.0000,0.0000,0.0000,0.0000,
913,789.26,12670.03,-12670.03,2501.8000,65535.0000,3445.2000,943.4000,0.0000,0.0000,0.0000,
914,789.65,12663.83,-12663.83,2679.6000,65535.0000,3584.8000,905.2000,0.0000,0.0000,0.0000,
915,790.04,12657.63,-12657.63,2445.4000,65535.0000,3415.4000,970.0000,0.0000,0.0000,0.0000,
916,790.42,12651.45,-12651.45,2569.0000,65535.0000,3512.4000,943.4000,0.0000,0.0000,0.0000,
917,790.81,12645.28,-12645.28,2304.4000,65535.0000,3224.6000,920.2000,0.0000,0.0000,0.0000,
918,791.19,12639.11,-12639.11,3175.4000,65535.0000,4128.4000,953.0000,0.0000,0.0000,0.0000,
919,791.58,12632.96,-12632.96,2490.0000,65535.0000,3450.8000,960.8000,0.0000,0.0000,0.0000,
920,791.97,12626.81,-12626.81,2368.0000,65535.0000,3304.0000,936.0000,0.0000,0.0000,0.0000,
921,792.35,12620.67,-12620.67,2325.6000,65535.0000,3206.0000,880.4000,0.0000,0.0000,0.0000,
922,792.74,12614.55,-12614.55,2542.4000,65535.0000,3450.8000,908.4000,0.0000,0.0000,0.0000,
923,793.12,12608.43,-12608.43,2513.0000,65535.0000,3398.6000,885.6000,0.0000,0.0000,0.0000,
924,793.50,12602.32,-12602.32,2614.2000,65535.0000,3535.2000,921.0000,0.0000,0.0000,0.0000,
925,793.89,12596.22,-12596.22,2475.4000,65535.0000,3371.0000,895.6000,0.0000,0.0000,0.0000,
926,794.27,12590.13,-12590.13,2882.6000,65535.0000,3729.0000,846.4000,0.0000,0.0000,0.0000,
927,794.66,12584.05,-12584.05,2824.0000,65535.0000,3676.6000,852.6000,0.0000,0.0000,0.0000,
928,795.04,12577.98,-12577.98,3037.4000,65535.0000,3915.8000,878.4000,0.0000,0.0000,0.0000,
929,795.42,12571.92,-12571.92,2532.4000,65535.0000,3403.2000,870.8000,0.0000,0.0000,0.0000,
930,795.81,12565.86,-12565.86,2746.6000,65535.0000,3603.6000,857.0000,0.0000,0.0000,0.0000,
931,796.19,12559.82,-12559.82,2547.4000,65535.0000,3378.6000,831.2000,0.0000,0.0000,0.0000,
932,796.57,12553.78,-12553.78,2744.6000,65535.0000,3595.2000,850.6000,0.0000,0.0000,0.0000,
933,796.96,12547.76,-12547.76,2882.0000,65535.0000,3780.4000,898.4000,0.0000,0.0000,0.0000,
934,797.34,12541.74,-12541.74,2460.0000,65535.0000,3324.0000,864.0000,0.0000,0.0000,0.0000,
935,797.72,12535.74,-12535.74,2308.4000,65535.0000,3175.8000,867.4000,0.0000,0.0000,0.0000,
936,798.10,12529.74,-12529.74,2719.0000,65535.0000,3602.2000,883.2000,0.0000,0.0000,0.0000,
937,798.48,12523.75,-12523.75,2996.2000,65535.0000,3849.0000,852.8000,0.0000,0.0000,0.0000,
938,798.86,12517.77,-12517.77,2610.8000,65535.0000,3508.2000,897.4000,0.0000,0.0000,0.0000,
939,799.25,12511.80,-12511.80,2774.0000,65535.0000,3670.2000,896.2000,0.0000,0.0000,0.0000,
940,799.63,12505.83,-12505.83,2608.2000,65535.0000,3475.0000,866.8000,0.0000,0.0000,0.0000,
941,800.01,12499.88,-12499.88,3014.0000,65535.0000,3795.4000,781.4000,0.0000,0.0000,0.0000,
942,800.39,12493.94,-12493.94,2478.2000,65535.0000,3381.4000,903.2000,0.0000,0.0000,0.0000,
943,800.77,12488.00,-12488.00,2900.6000,65535.0000,3744.0000,843.4000,0.0000,0.0000,0.0000,
944,801.15,12482.08,-12482.08,3552.4000,65535.0000,4457.2000,904.8000,0.0000,0.0000,0.0000,
945,801.53,12476.16,-12476.16,2624.8000,65535.0000,3467.6000,842.8000,0.0000,0.0000,0.0000,
946,801.91,12470.25,-12470.25,2711.6000,65535.0000,3560.2000,848.6000,0.0000,0.0000,0.0000,
947,802.29,12464.35,-12464.35,3073.2000,65535.0000,3954.0000,880.8000,0.0000,0.0000,0.0000,
948,802.67,12458.46,-12458.46,2903.0000,65535.0000,3769.8000,866.8000,0.0000,0.0000,0.0000,
949,803.05,12452.58,-12452.58,2779.8000,65535.0000,3648.2000,868.4000,0.0000,0.0000,0.0000,
950,803.43,12446.71,-12446.71,2846.4000,65535.0000,3688.4000,842.0000,0.0000,0.0000,0.0000,
951,803.80,12440.84,-12440.84,3214.0000,65535.0000,4112.0000,898.0000,0.0000,0.0000,0.0000,
952,804.18,12434.99,-12434.99,2423.0000,65535.0000,3262.0000,839.0000,0.0000,0.0000,0.0000,
953,804.56,12429.14,-12429.14,2672.8000,65535.0000,3498.0000,825.2000,0.0000,0.0000,0.0000,
954,804.94,12423.30,-12423.30,3115.4000,65535.0000,3965.6000,850.2000,0.0000,0.0000,0.0000,
955,805.32,12417.48,-12417.48,2612.2000,65535.0000,3475.6000,863.4000,0.0000,0.0000,0.0000,
956,805.69,12411.66,-12411.66,2728.2000,65535.0000,3572.6000,844.4000,0.0000,0.0000,0.0000,
957,806.07,12405.84,-12405.84,2925.6000,65535.0000,3755.6000,830.0000,0.0000,0.0000,0.0000,
958,806.45,12400.04,-12400.04,2674.2000,65535.0000,3527.0000,852.8000,0.0000,0.0000,0.0000,
959,806.83,12394.25,-12394.25,3639.2000,65535.0000,4480.4000,841.2000,0.0000,0.0000,0.0000,
960,807.20,12388.46,-12388.46,2629.8000,65535.0000,3430.8000,801.0000,0.0000,0.0000,0.0000,
961,807.58,12382.69,-12382.69,2634.6000,65535.0000,3449.0000,814.4000,0.0000,0.0000,0.0000,
962,807.96,12376.92,-12376.92,2797.6000,65535.0000,3586.8000,789.2000,0.0000,0.0000,0.0000,
963,808.33,12371.16,-12371.16,2733.0000,65535.0000,3518.4000,785.4000,0.0000,0.0000,0.0000,
964,808.71,12365.41,-12365.41,4103.6000,65535.0000,4935.8000,832.2000,0.0000,0.0000,0.0000,
965,809.08,12359.67,-12359.67,3163.6000,65535.0000,4038.4000,874.8000,0.0000,0.0000,0.0000,
966,809.46,12353.93,-12353.93,2802.2000,65535.0000,3617.0000,814.8000,0.0000,0.0000,0.0000,
967,809.83,12348.21,-12348.21,2393.0000,65535.0000,3182.6000,789.6000,0.0000,0.0000,0.0000,
968,810.21,12342.49,-12342.49,2364.8000,65535.0000,3179.4000,814.6000,0.0000,0.0000,0.0000,
969,810.58,12336.78,-12336.78,2608.2000,65535.0000,3468.2000,860.0000,0.0000,0.0000,0.0000,
970,810.96,12331.08,-12331.08,2625.4000,65535.0000,3394.8000,769.4000,0.0000,0.0000,0.0000,
971,811.33,12325.39,-12325.39,3102.8000,65535.0000,3871.4000,768.6000,0.0000,0.0000,0.0000,
972,811.71,12319.71,-12319.71,3153.8000,65535.0000,3969.8000,816.0000,0.0000,0.0000,0.0000,
973,812.08,12314.04,-12314.04,2557.6000,65535.0000,3331.0000,773.4000,0.0000,0.0000,0.0000,
974,812.46,12308.37,-12308.37,2834.8000,65535.0000,3613.2000,778.4000,0.0000,0.0000,0.0000,
975,812.83,12302.72,-12302.72,2918.6000,65535.0000,3735.6000,817.0000,0.0000,0.0000,0.0000,
976,813.20,12297.07,-12297.07,2732.0000,65535.0000,3487.8000,755.8000,0.0000,0.0000,0.0000,
977,813.58,12291.43,-12291.43,2775.6000,65535.0000,3595.6000,820.0000,0.0000,0.0000,0.0000,
978,813.95,12285.79,-12285.79,2437.4000,65535.0000,3255.2000,817.8000,0.0000,0.0000,0.0000,
979,814.32,12280.17,-12280.17,2505.6000,65535.0000,3284.2000,778.6000,0.0000,0.0000,0.0000,
980,814.69,12274.56,-12274.56,2505.6000,65535.0000,3238.6000,733.0000,0.0000,0.0000,0.0000,
981,815.07,12268.95,-12268.95,2971.0000,65535.0000,3730.4000,759.4000,0.0000,0.0000,0.0000,
982,815.44,12263.35,-12263.35,2906.0000,65535.0000,3833.0000,927.0000,0.0000,0.0000,0.0000,
983,815.81,12257.76,-12257.76,3073.2000,65535.0000,4136.2000,1063.0000,0.0000,0.0000,0.0000,
984,816.18,12252.18,-12252.18,2686.4000,65535.0000,3506.0000,819.6000,0.0000,0.0000,0.0000,
985,816.55,12246.61,-12246.61,2968.4000,65535.0000,3811.8000,843.4000,0.0000,0.0000,0.0000,
986,816.92,12241.04,-12241.04,2883.4000,65535.0000,3716.2000,832.8000,0.0000,0.0000,0.0000,
987,817.29,12235.48,-12235.48,2717.2000,65535.0000,3498.6000,781.4000,0.0000,0.0000,0.0000,
988,817.67,12229.94,-12229.94,2571.8000,65535.0000,3331.4000,759.6000,0.0000,0.0000,0.0000,
989,818.04,12224.40,-12224.40,2728.2000,65535.0000,3513.8000,785.6000,0.0000,0.0000,0.0000,
990,818.41,12218.86,-12218.86,2831.6000,65535.0000,3614.2000,782.6000,0.0000,0.0000,0.0000,
991,818.78,12213.34,-12213.34,3434.4000,65535.0000,4205.2000,770.8000,0.0000,0.0000,0.0000,
992,819.15,12207.82,-12207.82,2664.2000,65535.0000,3475.8000,811.6000,0.0000,0.0000,0.0000,
993,819.52,12202.32,-12202.32,2852.0000,65535.0000,3610.6000,758.6000,0.0000,0.0000,0.0000,
994,819.89,12196.82,-12196.82,2666.4000,65535.0000,3455.2000,788.8000,0.0000,0.0000,0.0000,
995,820.26,12191.32,-12191.32,2404.2000,65535.0000,3109.6000,705.4000,0.0000,0.0000,0.0000,
996,820.62,12185.84,-12185.84,2567.8000,65535.0000,3305.8000,738.0000,0.0000,0.0000,0.0000,
997,820.99,12180.37,-12180.37,2795.0000,65535.0000,3523.0000,728.0000,0.0000,0.0000,0.0000,
998,821.36,12174.90,-12174.90,3375.0000,65535.0000,4093.4000,718.4000,0.0000,0.0000,0.0000,
999,821.73,12169.44,-12169.44,2728.4000,65535.0000,3514.8000,786.4000,0.0000,0.0000,0.0000,
