File Version;BWSpec4.03_33_C
Date,2026-04-16 14:26:09
title,ZMYE
model,BRC1K
c code,ZMYE
operator,
port1,0
baud1,3
pixel_start,0
pixel_end,999
step,1
units,1
bkcolor,16777215
show_mode,3
data_mode,0
pixel_mode,0
intigration times(ms),10
average number,5
time_multiply,1
spectrometer_type ,71
yaxis,1
yaxis_min,-494
yaxis_max,65535
xaxis,0
xaxis_min,0
xaxis_max,999
irrands_DispWLMin,100
irrands_DispWLMax,1000
yaxis_min_6,0
yaxis_max_6,0
irradiance_unit,0
Color_Data_Flag,0
Color_StartWL,400
Color_EndWL,700
Color_IncWL,10
power_unit_index,3
photometric_index,0
Illuminant_index,3
observer_index,0
lab_l,0
lab_a,0
lab_b,0
radiometric_flag,0
coefs_a0,348.690626413622
coefs_a1,0.577242842360403
coefs_a2,-0.000102397725884922
coefs_a3,-1.43696470178894E-09
coefs_b0,-604.699216452593
coefs_b1,1.81821494738794
coefs_b2,-0.000542372268672448
coefs_b3,8.54199818797248E-07
coefs_r0,1
coefs_r1,0
coefs_r2,0
coefs_r3,0
coefs_j0,1
coefs_j1,0
coefs_j2,0
coefs_j3,0
enable_coefs_r,0
all_data_save,1
select_option,-1
interval_time,10
pixel_num,1000
sel_pixel_start,0
sel_pixel_end,968
sel_pixel_delta,1
dark_compensate,0
dark_compensate_value_1,0
dark_compensate_value_2,0
dark_compensate_value_3,0
monitor pixel_0,0
monitor pixel_1,0
monitor pixel_2,0
monitor pixel_3,0
monitor pixel_4,0
monitor pixel_5,0
vertical_select_flag,0
vertical_line3,0
vertical_line4,0
vertical_line3_wv,1
vertical_line4_wv,1
vertical_line_flag,0
vertical_line_ratio,0
laser_wavelength,0
laser_powerlevel,0
overlay_js,0
Relative Intensity Correction Flag,0
Pixel,Wavelength,Wavenumber,Raman Shift,Dark,Reference,Raw data #1,Dark Subtracted #1,%TR #1,Absorbance #1,Irradiance (lumen) #1,
0,348.69,28678.72,-28678.72,1450.6000,65535.0000,1481.0000,30.4000,0.0000,0.0000,0.0000,
1,349.27,28631.33,-28631.33,1464.4000,65535.0000,1491.4000,27.0000,0.0000,0.0000,0.0000,
2,349.84,28584.11,-28584.11,1456.6000,65535.0000,1497.0000,40.4000,0.0000,0.0000,0.0000,
3,350.42,28537.07,-28537.07,1481.4000,65535.0000,1496.0000,14.6000,0.0000,0.0000,0.0000,
4,351.00,28490.19,-28490.19,1452.0000,65535.0000,1497.2000,45.2000,0.0000,0.0000,0.0000,
5,351.57,28443.49,-28443.49,1480.8000,65535.0000,1495.6000,14.8000,0.0000,0.0000,0.0000,
6,352.15,28396.96,-28396.96,1451.4000,65535.0000,1496.4000,45.0000,0.0000,0.0000,0.0000,
7,352.73,28350.59,-28350.59,1478.6000,65535.0000,1507.6000,29.0000,0.0000,0.0000,0.0000,
8,353.30,28304.40,-28304.40,1453.8000,65535.0000,1505.2000,51.4000,0.0000,0.0000,0.0000,
9,353.88,28258.36,-28258.36,1453.8000,65535.0000,1507.4000,53.6000,0.0000,0.0000,0.0000,
10,354.45,28212.50,-28212.50,1461.4000,65535.0000,1491.6000,30.2000,0.0000,0.0000,0.0000,
11,355.03,28166.80,-28166.80,1470.8000,65535.0000,1501.4000,30.6000,0.0000,0.0000,0.0000,
12,355.60,28121.26,-28121.26,1457.2000,65535.0000,1503.4000,46.2000,0.0000,0.0000,0.0000,
13,356.18,28075.89,-28075.89,1451.2000,65535.0000,1516.2000,65.0000,0.0000,0.0000,0.0000,
14,356.75,28030.68,-28030.68,1470.0000,65535.0000,1516.2000,46.2000,0.0000,0.0000,0.0000,
15,357.33,27985.63,-27985.63,1440.2000,65535.0000,1484.4000,44.2000,0.0000,0.0000,0.0000,
16,357.90,27940.74,-27940.74,1482.4000,65535.0000,1485.6000,3.2000,0.0000,0.0000,0.0000,
17,358.47,27896.01,-27896.01,1478.6000,65535.0000,1495.4000,16.8000,0.0000,0.0000,0.0000,
18,359.05,27851.44,-27851.44,1469.4000,65535.0000,1502.2000,32.8000,0.0000,0.0000,0.0000,
19,359.62,27807.03,-27807.03,1471.8000,65535.0000,1466.2000,-5.6000,0.0000,0.0000,0.0000,
20,360.19,27762.78,-27762.78,1462.2000,65535.0000,1503.8000,41.6000,0.0000,0.0000,0.0000,
21,360.77,27718.68,-27718.68,1464.0000,65535.0000,1470.8000,6.8000,0.0000,0.0000,0.0000,
22,361.34,27674.74,-27674.74,1464.0000,65535.0000,1493.0000,29.0000,0.0000,0.0000,0.0000,
23,361.91,27630.95,-27630.95,1462.4000,65535.0000,1488.8000,26.4000,0.0000,0.0000,0.0000,
24,362.49,27587.31,-27587.31,1460.0000,65535.0000,1500.8000,40.8000,0.0000,0.0000,0.0000,
25,363.06,27543.83,-27543.83,1469.8000,65535.0000,1485.0000,15.2000,0.0000,0.0000,0.0000,
26,363.63,27500.50,-27500.50,1449.6000,65535.0000,1484.6000,35.0000,0.0000,0.0000,0.0000,
27,364.20,27457.33,-27457.33,1468.0000,65535.0000,1474.2000,6.2000,0.0000,0.0000,0.0000,
28,364.77,27414.30,-27414.30,1451.6000,65535.0000,1501.6000,50.0000,0.0000,0.0000,0.0000,
29,365.34,27371.42,-27371.42,1477.4000,65535.0000,1480.2000,2.8000,0.0000,0.0000,0.0000,
30,365.92,27328.70,-27328.70,1484.2000,65535.0000,1488.0000,3.8000,0.0000,0.0000,0.0000,
31,366.49,27286.12,-27286.12,1469.0000,65535.0000,1497.8000,28.8000,0.0000,0.0000,0.0000,
32,367.06,27243.69,-27243.69,1461.8000,65535.0000,1474.4000,12.6000,0.0000,0.0000,0.0000,
33,367.63,27201.40,-27201.40,1466.8000,65535.0000,1448.4000,-18.4000,0.0000,0.0000,0.0000,
34,368.20,27159.27,-27159.27,1473.8000,65535.0000,1483.4000,9.6000,0.0000,0.0000,0.0000,
35,368.77,27117.27,-27117.27,1468.0000,65535.0000,1484.0000,16.0000,0.0000,0.0000,0.0000,
36,369.34,27075.43,-27075.43,1461.8000,65535.0000,1492.6000,30.8000,0.0000,0.0000,0.0000,
37,369.91,27033.72,-27033.72,1455.0000,65535.0000,1467.4000,12.4000,0.0000,0.0000,0.0000,
38,370.48,26992.16,-26992.16,1458.0000,65535.0000,1510.0000,52.0000,0.0000,0.0000,0.0000,
39,371.05,26950.74,-26950.74,1448.0000,65535.0000,1487.0000,39.0000,0.0000,0.0000,0.0000,
40,371.62,26909.47,-26909.47,1462.8000,65535.0000,1496.0000,33.2000,0.0000,0.0000,0.0000,
41,372.19,26868.33,-26868.33,1469.6000,65535.0000,1474.2000,4.6000,0.0000,0.0000,0.0000,
42,372.75,26827.34,-26827.34,1458.6000,65535.0000,1482.2000,23.6000,0.0000,0.0000,0.0000,
43,373.32,26786.48,-26786.48,1471.8000,65535.0000,1458.6000,-13.2000,0.0000,0.0000,0.0000,
44,373.89,26745.77,-26745.77,1464.8000,65535.0000,1490.8000,26.0000,0.0000,0.0000,0.0000,
45,374.46,26705.19,-26705.19,1493.2000,65535.0000,1492.4000,-0.8000,0.0000,0.0000,0.0000,
46,375.03,26664.75,-26664.75,1461.4000,65535.0000,1491.0000,29.6000,0.0000,0.0000,0.0000,
47,375.59,26624.44,-26624.44,1468.6000,65535.0000,1482.0000,13.4000,0.0000,0.0000,0.0000,
48,376.16,26584.28,-26584.28,1442.4000,65535.0000,1508.0000,65.6000,0.0000,0.0000,0.0000,
49,376.73,26544.24,-26544.24,1495.0000,65535.0000,1501.0000,6.0000,0.0000,0.0000,0.0000,
50,377.30,26504.35,-26504.35,1478.2000,65535.0000,1468.6000,-9.6000,0.0000,0.0000,0.0000,
51,377.86,26464.58,-26464.58,1449.4000,65535.0000,1481.2000,31.8000,0.0000,0.0000,0.0000,
52,378.43,26424.95,-26424.95,1468.0000,65535.0000,1482.0000,14.0000,0.0000,0.0000,0.0000,
53,379.00,26385.46,-26385.46,1471.4000,65535.0000,1465.2000,-6.2000,0.0000,0.0000,0.0000,
54,379.56,26346.09,-26346.09,1462.4000,65535.0000,1486.8000,24.4000,0.0000,0.0000,0.0000,
55,380.13,26306.86,-26306.86,1458.0000,65535.0000,1510.0000,52.0000,0.0000,0.0000,0.0000,
56,380.69,26267.76,-26267.76,1471.6000,65535.0000,1481.8000,10.2000,0.0000,0.0000,0.0000,
57,381.26,26228.78,-26228.78,1483.8000,65535.0000,1496.0000,12.2000,0.0000,0.0000,0.0000,
58,381.83,26189.94,-26189.94,1453.0000,65535.0000,1491.6000,38.6000,0.0000,0.0000,0.0000,
59,382.39,26151.23,-26151.23,1440.4000,65535.0000,1502.6000,62.2000,0.0000,0.0000,0.0000,
60,382.96,26112.64,-26112.64,1477.8000,65535.0000,1500.2000,22.4000,0.0000,0.0000,0.0000,
61,383.52,26074.19,-26074.19,1457.2000,65535.0000,1491.4000,34.2000,0.0000,0.0000,0.0000,
62,384.09,26035.85,-26035.85,1464.8000,65535.0000,1510.2000,45.4000,0.0000,0.0000,0.0000,
63,384.65,25997.65,-25997.65,1466.6000,65535.0000,1526.8000,60.2000,0.0000,0.0000,0.0000,
64,385.21,25959.57,-25959.57,1473.8000,65535.0000,1492.0000,18.2000,0.0000,0.0000,0.0000,
65,385.78,25921.62,-25921.62,1479.6000,65535.0000,1480.2000,0.6000,0.0000,0.0000,0.0000,
66,386.34,25883.79,-25883.79,1462.4000,65535.0000,1502.2000,39.8000,0.0000,0.0000,0.0000,
67,386.91,25846.08,-25846.08,1458.4000,65535.0000,1498.8000,40.4000,0.0000,0.0000,0.0000,
68,387.47,25808.50,-25808.50,1459.8000,65535.0000,1495.4000,35.6000,0.0000,0.0000,0.0000,
69,388.03,25771.04,-25771.04,1446.4000,65535.0000,1485.2000,38.8000,0.0000,0.0000,0.0000,
70,388.60,25733.71,-25733.71,1440.2000,65535.0000,1500.4000,60.2000,0.0000,0.0000,0.0000,
71,389.16,25696.49,-25696.49,1438.4000,65535.0000,1507.6000,69.2000,0.0000,0.0000,0.0000,
72,389.72,25659.40,-25659.40,1443.0000,65535.0000,1512.8000,69.8000,0.0000,0.0000,0.0000,
73,390.28,25622.43,-25622.43,1453.8000,65535.0000,1495.2000,41.4000,0.0000,0.0000,0.0000,
74,390.85,25585.57,-25585.57,1464.4000,65535.0000,1507.8000,43.4000,0.0000,0.0000,0.0000,
75,391.41,25548.84,-25548.84,1456.6000,65535.0000,1482.2000,25.6000,0.0000,0.0000,0.0000,
76,391.97,25512.22,-25512.22,1463.0000,65535.0000,1481.8000,18.8000,0.0000,0.0000,0.0000,
77,392.53,25475.72,-25475.72,1467.4000,65535.0000,1521.6000,54.2000,0.0000,0.0000,0.0000,
78,393.09,25439.34,-25439.34,1479.0000,65535.0000,1505.6000,26.6000,0.0000,0.0000,0.0000,
79,393.65,25403.08,-25403.08,1464.2000,65535.0000,1526.8000,62.6000,0.0000,0.0000,0.0000,
80,394.21,25366.93,-25366.93,1463.2000,65535.0000,1508.0000,44.8000,0.0000,0.0000,0.0000,
81,394.77,25330.90,-25330.90,1449.0000,65535.0000,1517.0000,68.0000,0.0000,0.0000,0.0000,
82,395.34,25294.99,-25294.99,1468.0000,65535.0000,1521.0000,53.0000,0.0000,0.0000,0.0000,
83,395.90,25259.19,-25259.19,1453.2000,65535.0000,1499.2000,46.0000,0.0000,0.0000,0.0000,
84,396.46,25223.50,-25223.50,1451.2000,65535.0000,1507.6000,56.4000,0.0000,0.0000,0.0000,
85,397.02,25187.93,-25187.93,1479.0000,65535.0000,1534.4000,55.4000,0.0000,0.0000,0.0000,
86,397.58,25152.47,-25152.47,1463.0000,65535.0000,1536.6000,73.6000,0.0000,0.0000,0.0000,
87,398.13,25117.12,-25117.12,1455.0000,65535.0000,1521.0000,66.0000,0.0000,0.0000,0.0000,
88,398.69,25081.89,-25081.89,1467.2000,65535.0000,1528.8000,61.6000,0.0000,0.0000,0.0000,
89,399.25,25046.77,-25046.77,1473.2000,65535.0000,1555.0000,81.8000,0.0000,0.0000,0.0000,
90,399.81,25011.75,-25011.75,1461.4000,65535.0000,1540.6000,79.2000,0.0000,0.0000,0.0000,
91,400.37,24976.85,-24976.85,1432.4000,65535.0000,1550.2000,117.8000,0.0000,0.0000,0.0000,
92,400.93,24942.06,-24942.06,1442.4000,65535.0000,1523.4000,81.0000,0.0000,0.0000,0.0000,
93,401.49,24907.38,-24907.38,1474.6000,65535.0000,1508.8000,34.2000,0.0000,0.0000,0.0000,
94,402.05,24872.81,-24872.81,1491.0000,65535.0000,1509.6000,18.6000,0.0000,0.0000,0.0000,
95,402.60,24838.34,-24838.34,1457.4000,65535.0000,1537.6000,80.2000,0.0000,0.0000,0.0000,
96,403.16,24803.99,-24803.99,1473.2000,65535.0000,1548.6000,75.4000,0.0000,0.0000,0.0000,
97,403.72,24769.74,-24769.74,1475.6000,65535.0000,1551.0000,75.4000,0.0000,0.0000,0.0000,
98,404.28,24735.60,-24735.60,1454.2000,65535.0000,1545.8000,91.6000,0.0000,0.0000,0.0000,
99,404.83,24701.56,-24701.56,1454.8000,65535.0000,1538.6000,83.8000,0.0000,0.0000,0.0000,
100,405.39,24667.63,-24667.63,1474.8000,65535.0000,1549.0000,74.2000,0.0000,0.0000,0.0000,
101,405.95,24633.81,-24633.81,1458.2000,65535.0000,1564.0000,105.8000,0.0000,0.0000,0.0000,
102,406.50,24600.09,-24600.09,1458.2000,65535.0000,1552.8000,94.6000,0.0000,0.0000,0.0000,
103,407.06,24566.48,-24566.48,1466.4000,65535.0000,1577.0000,110.6000,0.0000,0.0000,0.0000,
104,407.61,24532.97,-24532.97,1446.8000,65535.0000,1552.8000,106.0000,0.0000,0.0000,0.0000,
105,408.17,24499.56,-24499.56,1462.0000,65535.0000,1554.6000,92.6000,0.0000,0.0000,0.0000,
106,408.73,24466.26,-24466.26,1479.8000,65535.0000,1535.4000,55.6000,0.0000,0.0000,0.0000,
107,409.28,24433.06,-24433.06,1471.2000,65535.0000,1559.2000,88.0000,0.0000,0.0000,0.0000,
108,409.84,24399.96,-24399.96,1459.8000,65535.0000,1550.4000,90.6000,0.0000,0.0000,0.0000,
109,410.39,24366.97,-24366.97,1463.4000,65535.0000,1565.6000,102.2000,0.0000,0.0000,0.0000,
110,410.95,24334.07,-24334.07,1463.2000,65535.0000,1585.0000,121.8000,0.0000,0.0000,0.0000,
111,411.50,24301.28,-24301.28,1460.4000,65535.0000,1563.4000,103.0000,0.0000,0.0000,0.0000,
112,412.06,24268.59,-24268.59,1450.8000,65535.0000,1575.2000,124.4000,0.0000,0.0000,0.0000,
113,412.61,24235.99,-24235.99,1437.8000,65535.0000,1579.8000,142.0000,0.0000,0.0000,0.0000,
114,413.16,24203.50,-24203.50,1462.8000,65535.0000,1576.8000,114.0000,0.0000,0.0000,0.0000,
115,413.72,24171.10,-24171.10,1455.6000,65535.0000,1579.2000,123.6000,0.0000,0.0000,0.0000,
116,414.27,24138.81,-24138.81,1467.8000,65535.0000,1588.6000,120.8000,0.0000,0.0000,0.0000,
117,414.82,24106.61,-24106.61,1480.8000,65535.0000,1588.4000,107.6000,0.0000,0.0000,0.0000,
118,415.38,24074.51,-24074.51,1454.6000,65535.0000,1561.8000,107.2000,0.0000,0.0000,0.0000,
119,415.93,24042.50,-24042.50,1479.8000,65535.0000,1574.4000,94.6000,0.0000,0.0000,0.0000,
120,416.48,24010.60,-24010.60,1465.2000,65535.0000,1590.2000,125.0000,0.0000,0.0000,0.0000,
121,417.04,23978.79,-23978.79,1480.6000,65535.0000,1568.2000,87.6000,0.0000,0.0000,0.0000,
122,417.59,23947.07,-23947.07,1468.2000,65535.0000,1578.8000,110.6000,0.0000,0.0000,0.0000,
123,418.14,23915.46,-23915.46,1500.6000,65535.0000,1584.6000,84.0000,0.0000,0.0000,0.0000,
124,418.69,23883.93,-23883.93,1483.4000,65535.0000,1595.2000,111.8000,0.0000,0.0000,0.0000,
125,419.24,23852.50,-23852.50,1472.2000,65535.0000,1590.4000,118.2000,0.0000,0.0000,0.0000,
126,419.79,23821.17,-23821.17,1464.8000,65535.0000,1584.0000,119.2000,0.0000,0.0000,0.0000,
127,420.35,23789.93,-23789.93,1463.0000,65535.0000,1562.0000,99.0000,0.0000,0.0000,0.0000,
128,420.90,23758.78,-23758.78,1467.6000,65535.0000,1559.4000,91.8000,0.0000,0.0000,0.0000,
129,421.45,23727.73,-23727.73,1458.2000,65535.0000,1564.4000,106.2000,0.0000,0.0000,0.0000,
130,422.00,23696.77,-23696.77,1464.4000,65535.0000,1582.4000,118.0000,0.0000,0.0000,0.0000,
131,422.55,23665.90,-23665.90,1486.6000,65535.0000,1596.0000,109.4000,0.0000,0.0000,0.0000,
132,423.10,23635.12,-23635.12,1452.4000,65535.0000,1587.8000,135.4000,0.0000,0.0000,0.0000,
133,423.65,23604.43,-23604.43,1452.0000,65535.0000,1602.0000,150.0000,0.0000,0.0000,0.0000,
134,424.20,23573.84,-23573.84,1445.4000,65535.0000,1563.2000,117.8000,0.0000,0.0000,0.0000,
135,424.75,23543.33,-23543.33,1471.8000,65535.0000,1589.4000,117.6000,0.0000,0.0000,0.0000,
136,425.30,23512.92,-23512.92,1469.6000,65535.0000,1566.8000,97.2000,0.0000,0.0000,0.0000,
137,425.85,23482.60,-23482.60,1468.4000,65535.0000,1592.2000,123.8000,0.0000,0.0000,0.0000,
138,426.40,23452.36,-23452.36,1467.6000,65535.0000,1596.8000,129.2000,0.0000,0.0000,0.0000,
139,426.95,23422.22,-23422.22,1478.2000,65535.0000,1591.4000,113.2000,0.0000,0.0000,0.0000,
140,427.49,23392.16,-23392.16,1475.8000,65535.0000,1630.2000,154.4000,0.0000,0.0000,0.0000,
141,428.04,23362.19,-23362.19,1486.0000,65535.0000,1606.2000,120.2000,0.0000,0.0000,0.0000,
142,428.59,23332.31,-23332.31,1443.8000,65535.0000,1607.0000,163.2000,0.0000,0.0000,0.0000,
143,429.14,23302.52,-23302.52,1466.2000,65535.0000,1635.6000,169.4000,0.0000,0.0000,0.0000,
144,429.69,23272.81,-23272.81,1473.8000,65535.0000,1608.6000,134.8000,0.0000,0.0000,0.0000,
145,430.23,23243.19,-23243.19,1432.4000,65535.0000,1598.0000,165.6000,0.0000,0.0000,0.0000,
146,430.78,23213.66,-23213.66,1447.2000,65535.0000,1610.6000,163.4000,0.0000,0.0000,0.0000,
147,431.33,23184.21,-23184.21,1466.2000,65535.0000,1615.6000,149.4000,0.0000,0.0000,0.0000,
148,431.87,23154.85,-23154.85,1480.6000,65535.0000,1603.0000,122.4000,0.0000,0.0000,0.0000,
149,432.42,23125.57,-23125.57,1458.0000,65535.0000,1646.4000,188.4000,0.0000,0.0000,0.0000,
150,432.97,23096.38,-23096.38,1473.4000,65535.0000,1612.8000,139.4000,0.0000,0.0000,0.0000,
151,433.51,23067.28,-23067.28,1477.0000,65535.0000,1639.0000,162.0000,0.0000,0.0000,0.0000,
152,434.06,23038.25,-23038.25,1463.8000,65535.0000,1605.6000,141.8000,0.0000,0.0000,0.0000,
153,434.61,23009.31,-23009.31,1457.2000,65535.0000,1620.0000,162.8000,0.0000,0.0000,0.0000,
154,435.15,22980.46,-22980.46,1453.2000,65535.0000,1644.4000,191.2000,0.0000,0.0000,0.0000,
155,435.70,22951.69,-22951.69,1472.4000,65535.0000,1648.0000,175.6000,0.0000,0.0000,0.0000,
156,436.24,22923.00,-22923.00,1479.0000,65535.0000,1644.0000,165.0000,0.0000,0.0000,0.0000,
157,436.79,22894.39,-22894.39,1469.0000,65535.0000,1634.6000,165.6000,0.0000,0.0000,0.0000,
158,437.33,22865.87,-22865.87,1462.8000,65535.0000,1626.8000,164.0000,0.0000,0.0000,0.0000,
159,437.88,22837.42,-22837.42,1464.0000,65535.0000,1636.0000,172.0000,0.0000,0.0000,0.0000,
160,438.42,22809.06,-22809.06,1470.8000,65535.0000,1637.0000,166.2000,0.0000,0.0000,0.0000,
161,438.97,22780.78,-22780.78,1474.8000,65535.0000,1605.0000,130.2000,0.0000,0.0000,0.0000,
162,439.51,22752.58,-22752.58,1458.0000,65535.0000,1633.0000,175.0000,0.0000,0.0000,0.0000,
163,440.05,22724.46,-22724.46,1482.2000,65535.0000,1646.8000,164.6000,0.0000,0.0000,0.0000,
164,440.60,22696.42,-22696.42,1486.2000,65535.0000,1663.6000,177.4000,0.0000,0.0000,0.0000,
165,441.14,22668.47,-22668.47,1452.4000,65535.0000,1661.4000,209.0000,0.0000,0.0000,0.0000,
166,441.68,22640.59,-22640.59,1458.8000,65535.0000,1651.0000,192.2000,0.0000,0.0000,0.0000,
167,442.23,22612.78,-22612.78,1473.0000,65535.0000,1658.2000,185.2000,0.0000,0.0000,0.0000,
168,442.77,22585.06,-22585.06,1442.6000,65535.0000,1686.0000,243.4000,0.0000,0.0000,0.0000,
169,443.31,22557.42,-22557.42,1471.2000,65535.0000,1677.6000,206.4000,0.0000,0.0000,0.0000,
170,443.86,22529.85,-22529.85,1476.6000,65535.0000,1672.2000,195.6000,0.0000,0.0000,0.0000,
171,444.40,22502.36,-22502.36,1466.6000,65535.0000,1694.4000,227.8000,0.0000,0.0000,0.0000,
172,444.94,22474.95,-22474.95,1463.4000,65535.0000,1669.8000,206.4000,0.0000,0.0000,0.0000,
173,445.48,22447.62,-22447.62,1459.6000,65535.0000,1674.4000,214.8000,0.0000,0.0000,0.0000,
174,446.02,22420.36,-22420.36,1471.4000,65535.0000,1700.6000,229.2000,0.0000,0.0000,0.0000,
175,446.56,22393.18,-22393.18,1481.0000,65535.0000,1687.2000,206.2000,0.0000,0.0000,0.0000,
176,447.11,22366.08,-22366.08,1475.2000,65535.0000,1686.2000,211.0000,0.0000,0.0000,0.0000,
177,447.65,22339.05,-22339.05,1434.2000,65535.0000,1689.8000,255.6000,0.0000,0.0000,0.0000,
178,448.19,22312.10,-22312.10,1448.4000,65535.0000,1664.2000,215.8000,0.0000,0.0000,0.0000,
179,448.73,22285.22,-22285.22,1434.4000,65535.0000,1676.8000,242.4000,0.0000,0.0000,0.0000,
180,449.27,22258.42,-22258.42,1466.0000,65535.0000,1688.6000,222.6000,0.0000,0.0000,0.0000,
181,449.81,22231.69,-22231.69,1476.6000,65535.0000,1665.6000,189.0000,0.0000,0.0000,0.0000,
182,450.35,22205.03,-22205.03,1484.0000,65535.0000,1693.2000,209.2000,0.0000,0.0000,0.0000,
183,450.89,22178.45,-22178.45,1471.6000,65535.0000,1712.8000,241.2000,0.0000,0.0000,0.0000,
184,451.43,22151.95,-22151.95,1473.4000,65535.0000,1743.0000,269.6000,0.0000,0.0000,0.0000,
185,451.97,22125.51,-22125.51,1472.2000,65535.0000,1717.4000,245.2000,0.0000,0.0000,0.0000,
186,452.51,22099.15,-22099.15,1431.4000,65535.0000,1720.0000,288.6000,0.0000,0.0000,0.0000,
187,453.04,22072.87,-22072.87,1454.8000,65535.0000,1699.0000,244.2000,0.0000,0.0000,0.0000,
188,453.58,22046.65,-22046.65,1488.8000,65535.0000,1714.4000,225.6000,0.0000,0.0000,0.0000,
189,454.12,22020.51,-22020.51,1478.6000,65535.0000,1721.8000,243.2000,0.0000,0.0000,0.0000,
190,454.66,21994.44,-21994.44,1496.0000,65535.0000,1722.0000,226.0000,0.0000,0.0000,0.0000,
191,455.20,21968.44,-21968.44,1484.8000,65535.0000,1730.4000,245.6000,0.0000,0.0000,0.0000,
192,455.74,21942.51,-21942.51,1490.2000,65535.0000,1744.2000,254.0000,0.0000,0.0000,0.0000,
193,456.27,21916.66,-21916.66,1459.2000,65535.0000,1727.4000,268.2000,0.0000,0.0000,0.0000,
194,456.81,21890.87,-21890.87,1450.2000,65535.0000,1714.6000,264.4000,0.0000,0.0000,0.0000,
195,457.35,21865.16,-21865.16,1447.0000,65535.0000,1720.8000,273.8000,0.0000,0.0000,0.0000,
196,457.89,21839.51,-21839.51,1446.0000,65535.0000,1756.0000,310.0000,0.0000,0.0000,0.0000,
197,458.42,21813.94,-21813.94,1445.4000,65535.0000,1798.0000,352.6000,0.0000,0.0000,0.0000,
198,458.96,21788.43,-21788.43,1481.0000,65535.0000,1785.2000,304.2000,0.0000,0.0000,0.0000,
199,459.50,21763.00,-21763.00,1481.8000,65535.0000,1776.2000,294.4000,0.0000,0.0000,0.0000,
200,460.03,21737.63,-21737.63,1450.6000,65535.0000,1781.2000,330.6000,0.0000,0.0000,0.0000,
201,460.57,21712.33,-21712.33,1449.2000,65535.0000,1792.8000,343.6000,0.0000,0.0000,0.0000,
202,461.10,21687.10,-21687.10,1472.8000,65535.0000,1810.2000,337.4000,0.0000,0.0000,0.0000,
203,461.64,21661.94,-21661.94,1439.8000,65535.0000,1789.4000,349.6000,0.0000,0.0000,0.0000,
204,462.17,21636.85,-21636.85,1473.0000,65535.0000,1800.8000,327.8000,0.0000,0.0000,0.0000,
205,462.71,21611.82,-21611.82,1473.0000,65535.0000,1798.6000,325.6000,0.0000,0.0000,0.0000,
206,463.24,21586.86,-21586.86,1467.6000,65535.0000,1817.4000,349.8000,0.0000,0.0000,0.0000,
207,463.78,21561.97,-21561.97,1457.2000,65535.0000,1818.8000,361.6000,0.0000,0.0000,0.0000,
208,464.31,21537.15,-21537.15,1439.0000,65535.0000,1785.2000,346.2000,0.0000,0.0000,0.0000,
209,464.85,21512.39,-21512.39,1439.6000,65535.0000,1817.8000,378.2000,0.0000,0.0000,0.0000,
210,465.38,21487.70,-21487.70,1466.2000,65535.0000,1851.2000,385.0000,0.0000,0.0000,0.0000,
211,465.92,21463.07,-21463.07,1464.4000,65535.0000,1825.8000,361.4000,0.0000,0.0000,0.0000,
212,466.45,21438.51,-21438.51,1472.2000,65535.0000,1831.4000,359.2000,0.0000,0.0000,0.0000,
213,466.98,21414.02,-21414.02,1459.4000,65535.0000,1840.0000,380.6000,0.0000,0.0000,0.0000,
214,467.52,21389.59,-21389.59,1467.2000,65535.0000,1845.2000,378.0000,0.0000,0.0000,0.0000,
215,468.05,21365.23,-21365.23,1460.8000,65535.0000,1873.2000,412.4000,0.0000,0.0000,0.0000,
216,468.58,21340.93,-21340.93,1462.0000,65535.0000,1839.4000,377.4000,0.0000,0.0000,0.0000,
217,469.12,21316.70,-21316.70,1461.2000,65535.0000,1890.8000,429.6000,0.0000,0.0000,0.0000,
218,469.65,21292.53,-21292.53,1455.2000,65535.0000,1890.8000,435.6000,0.0000,0.0000,0.0000,
219,470.18,21268.42,-21268.42,1450.4000,65535.0000,1864.4000,414.0000,0.0000,0.0000,0.0000,
220,470.71,21244.38,-21244.38,1444.0000,65535.0000,1884.8000,440.8000,0.0000,0.0000,0.0000,
221,471.24,21220.40,-21220.40,1467.6000,65535.0000,1869.4000,401.8000,0.0000,0.0000,0.0000,
222,471.78,21196.49,-21196.49,1458.6000,65535.0000,1921.8000,463.2000,0.0000,0.0000,0.0000,
223,472.31,21172.64,-21172.64,1452.0000,65535.0000,1882.4000,430.4000,0.0000,0.0000,0.0000,
224,472.84,21148.85,-21148.85,1459.4000,65535.0000,1910.6000,451.2000,0.0000,0.0000,0.0000,
225,473.37,21125.12,-21125.12,1483.8000,65535.0000,1947.2000,463.4000,0.0000,0.0000,0.0000,
226,473.90,21101.46,-21101.46,1466.8000,65535.0000,1957.2000,490.4000,0.0000,0.0000,0.0000,
227,474.43,21077.86,-21077.86,1453.0000,65535.0000,1951.6000,498.6000,0.0000,0.0000,0.0000,
228,474.96,21054.32,-21054.32,1466.4000,65535.0000,1990.6000,524.2000,0.0000,0.0000,0.0000,
229,475.49,21030.84,-21030.84,1475.6000,65535.0000,1995.8000,520.2000,0.0000,0.0000,0.0000,
230,476.02,21007.43,-21007.43,1475.0000,65535.0000,2026.8000,551.8000,0.0000,0.0000,0.0000,
231,476.55,20984.07,-20984.07,1482.6000,65535.0000,2008.0000,525.4000,0.0000,0.0000,0.0000,
232,477.08,20960.78,-20960.78,1486.4000,65535.0000,2048.8000,562.4000,0.0000,0.0000,0.0000,
233,477.61,20937.54,-20937.54,1458.4000,65535.0000,2006.8000,548.4000,0.0000,0.0000,0.0000,
234,478.14,20914.37,-20914.37,1460.2000,65535.0000,2062.6000,602.4000,0.0000,0.0000,0.0000,
235,478.67,20891.26,-20891.26,1472.0000,65535.0000,2075.0000,603.0000,0.0000,0.0000,0.0000,
236,479.20,20868.20,-20868.20,1445.0000,65535.0000,2112.6000,667.6000,0.0000,0.0000,0.0000,
237,479.73,20845.21,-20845.21,1465.4000,65535.0000,2125.4000,660.0000,0.0000,0.0000,0.0000,
238,480.25,20822.28,-20822.28,1458.2000,65535.0000,2136.8000,678.6000,0.0000,0.0000,0.0000,
239,480.78,20799.40,-20799.40,1463.2000,65535.0000,2173.2000,710.0000,0.0000,0.0000,0.0000,
240,481.31,20776.59,-20776.59,1465.4000,65535.0000,2172.6000,707.2000,0.0000,0.0000,0.0000,
241,481.84,20753.83,-20753.83,1462.0000,65535.0000,2144.4000,682.4000,0.0000,0.0000,0.0000,
242,482.37,20731.14,-20731.14,1456.2000,65535.0000,2189.6000,733.4000,0.0000,0.0000,0.0000,
243,482.89,20708.50,-20708.50,1471.0000,65535.0000,2184.0000,713.0000,0.0000,0.0000,0.0000,
244,483.42,20685.92,-20685.92,1474.6000,65535.0000,2212.4000,737.8000,0.0000,0.0000,0.0000,
245,483.95,20663.40,-20663.40,1454.0000,65535.0000,2268.8000,814.8000,0.0000,0.0000,0.0000,
246,484.47,20640.93,-20640.93,1438.8000,65535.0000,2286.2000,847.4000,0.0000,0.0000,0.0000,
247,485.00,20618.52,-20618.52,1474.4000,65535.0000,2271.8000,797.4000,0.0000,0.0000,0.0000,
248,485.53,20596.17,-20596.17,1442.0000,65535.0000,2308.8000,866.8000,0.0000,0.0000,0.0000,
249,486.05,20573.88,-20573.88,1436.6000,65535.0000,2319.0000,882.4000,0.0000,0.0000,0.0000,
250,486.58,20551.65,-20551.65,1470.0000,65535.0000,2348.2000,878.2000,0.0000,0.0000,0.0000,
251,487.10,20529.47,-20529.47,1481.4000,65535.0000,2370.6000,889.2000,0.0000,0.0000,0.0000,
252,487.63,20507.35,-20507.35,1455.2000,65535.0000,2360.4000,905.2000,0.0000,0.0000,0.0000,
253,488.16,20485.28,-20485.28,1465.8000,65535.0000,2387.4000,921.6000,0.0000,0.0000,0.0000,
254,488.68,20463.27,-20463.27,1469.4000,65535.0000,2380.0000,910.6000,0.0000,0.0000,0.0000,
255,489.21,20441.32,-20441.32,1455.0000,65535.0000,2424.8000,969.8000,0.0000,0.0000,0.0000,
256,489.73,20419.42,-20419.42,1469.2000,65535.0000,2443.0000,973.8000,0.0000,0.0000,0.0000,
257,490.25,20397.57,-20397.57,1454.2000,65535.0000,2475.2000,1021.0000,0.0000,0.0000,0.0000,
258,490.78,20375.79,-20375.79,1439.4000,65535.0000,2512.6000,1073.2000,0.0000,0.0000,0.0000,
259,491.30,20354.05,-20354.05,1456.2000,65535.0000,2507.4000,1051.2000,0.0000,0.0000,0.0000,
260,491.83,20332.38,-20332.38,1444.4000,65535.0000,2497.4000,1053.0000,0.0000,0.0000,0.0000,
261,492.35,20310.75,-20310.75,1487.6000,65535.0000,2535.4000,1047.8000,0.0000,0.0000,0.0000,
262,492.87,20289.19,-20289.19,1492.6000,65535.0000,2545.2000,1052.6000,0.0000,0.0000,0.0000,
263,493.40,20267.67,-20267.67,1470.2000,65535.0000,2573.2000,1103.0000,0.0000,0.0000,0.0000,
264,493.92,20246.21,-20246.21,1470.2000,65535.0000,2573.8000,1103.6000,0.0000,0.0000,0.0000,
265,494.44,20224.80,-20224.80,1455.0000,65535.0000,2583.6000,1128.6000,0.0000,0.0000,0.0000,
266,494.96,20203.45,-20203.45,1449.8000,65535.0000,2588.6000,1138.8000,0.0000,0.0000,0.0000,
267,495.49,20182.15,-20182.15,1476.8000,65535.0000,2651.2000,1174.4000,0.0000,0.0000,0.0000,
268,496.01,20160.91,-20160.91,1474.0000,65535.0000,2615.8000,1141.8000,0.0000,0.0000,0.0000,
269,496.53,20139.71,-20139.71,1463.0000,65535.0000,2634.8000,1171.8000,0.0000,0.0000,0.0000,
270,497.05,20118.57,-20118.57,1464.0000,65535.0000,2622.2000,1158.2000,0.0000,0.0000,0.0000,
271,497.57,20097.49,-20097.49,1471.2000,65535.0000,2639.4000,1168.2000,0.0000,0.0000,0.0000,
272,498.10,20076.45,-20076.45,1455.8000,65535.0000,2669.8000,1214.0000,0.0000,0.0000,0.0000,
273,498.62,20055.47,-20055.47,1471.8000,65535.0000,2671.0000,1199.2000,0.0000,0.0000,0.0000,
274,499.14,20034.54,-20034.54,1466.6000,65535.0000,2701.6000,1235.0000,0.0000,0.0000,0.0000,
275,499.66,20013.66,-20013.66,1477.2000,65535.0000,2746.6000,1269.4000,0.0000,0.0000,0.0000,
276,500.18,19992.83,-19992.83,1471.0000,65535.0000,2723.0000,1252.0000,0.0000,0.0000,0.0000,
277,500.70,19972.06,-19972.06,1456.4000,65535.0000,2737.0000,1280.6000,0.0000,0.0000,0.0000,
278,501.22,19951.34,-19951.34,1463.8000,65535.0000,2779.0000,1315.2000,0.0000,0.0000,0.0000,
279,501.74,19930.66,-19930.66,1448.8000,65535.0000,2775.2000,1326.4000,0.0000,0.0000,0.0000,
280,502.26,19910.04,-19910.04,1473.2000,65535.0000,2807.4000,1334.2000,0.0000,0.0000,0.0000,
281,502.78,19889.47,-19889.47,1471.4000,65535.0000,2813.6000,1342.2000,0.0000,0.0000,0.0000,
282,503.30,19868.95,-19868.95,1455.0000,65535.0000,2804.8000,1349.8000,0.0000,0.0000,0.0000,
283,503.82,19848.48,-19848.48,1461.0000,65535.0000,2838.4000,1377.4000,0.0000,0.0000,0.0000,
284,504.34,19828.06,-19828.06,1438.2000,65535.0000,2869.4000,1431.2000,0.0000,0.0000,0.0000,
285,504.85,19807.69,-19807.69,1485.6000,65535.0000,2860.0000,1374.4000,0.0000,0.0000,0.0000,
286,505.37,19787.38,-19787.38,1466.8000,65535.0000,2895.4000,1428.6000,0.0000,0.0000,0.0000,
287,505.89,19767.11,-19767.11,1469.0000,65535.0000,2897.2000,1428.2000,0.0000,0.0000,0.0000,
288,506.41,19746.89,-19746.89,1468.8000,65535.0000,2896.2000,1427.4000,0.0000,0.0000,0.0000,
289,506.93,19726.72,-19726.72,1458.8000,65535.0000,2929.4000,1470.6000,0.0000,0.0000,0.0000,
290,507.44,19706.59,-19706.59,1451.2000,65535.0000,2924.2000,1473.0000,0.0000,0.0000,0.0000,
291,507.96,19686.52,-19686.52,1451.6000,65535.0000,2939.6000,1488.0000,0.0000,0.0000,0.0000,
292,508.48,19666.50,-19666.50,1481.0000,65535.0000,2969.4000,1488.4000,0.0000,0.0000,0.0000,
293,509.00,19646.52,-19646.52,1471.8000,65535.0000,3008.4000,1536.6000,0.0000,0.0000,0.0000,
294,509.51,19626.60,-19626.60,1471.4000,65535.0000,3028.8000,1557.4000,0.0000,0.0000,0.0000,
295,510.03,19606.72,-19606.72,1439.0000,65535.0000,3014.4000,1575.4000,0.0000,0.0000,0.0000,
296,510.55,19586.89,-19586.89,1440.4000,65535.0000,3044.2000,1603.8000,0.0000,0.0000,0.0000,
297,511.06,19567.11,-19567.11,1465.6000,65535.0000,3032.0000,1566.4000,0.0000,0.0000,0.0000,
298,511.58,19547.38,-19547.38,1468.2000,65535.0000,3081.6000,1613.4000,0.0000,0.0000,0.0000,
299,512.09,19527.69,-19527.69,1471.8000,65535.0000,3109.8000,1638.0000,0.0000,0.0000,0.0000,
300,512.61,19508.05,-19508.05,1478.0000,65535.0000,3114.8000,1636.8000,0.0000,0.0000,0.0000,
301,513.12,19488.46,-19488.46,1483.4000,65535.0000,3137.6000,1654.2000,0.0000,0.0000,0.0000,
302,513.64,19468.92,-19468.92,1475.2000,65535.0000,3173.8000,1698.6000,0.0000,0.0000,0.0000,
303,514.15,19449.42,-19449.42,1439.4000,65535.0000,3188.0000,1748.6000,0.0000,0.0000,0.0000,
304,514.67,19429.97,-19429.97,1478.2000,65535.0000,3188.0000,1709.8000,0.0000,0.0000,0.0000,
305,515.18,19410.56,-19410.56,1463.6000,65535.0000,3254.2000,1790.6000,0.0000,0.0000,0.0000,
306,515.70,19391.21,-19391.21,1474.8000,65535.0000,3242.2000,1767.4000,0.0000,0.0000,0.0000,
307,516.21,19371.90,-19371.90,1452.0000,65535.0000,3289.0000,1837.0000,0.0000,0.0000,0.0000,
308,516.73,19352.63,-19352.63,1458.4000,65535.0000,3289.2000,1830.8000,0.0000,0.0000,0.0000,
309,517.24,19333.41,-19333.41,1461.0000,65535.0000,3341.6000,1880.6000,0.0000,0.0000,0.0000,
310,517.75,19314.24,-19314.24,1485.8000,65535.0000,3330.0000,1844.2000,0.0000,0.0000,0.0000,
311,518.27,19295.11,-19295.11,1463.2000,65535.0000,3355.2000,1892.0000,0.0000,0.0000,0.0000,
312,518.78,19276.03,-19276.03,1472.2000,65535.0000,3424.8000,1952.6000,0.0000,0.0000,0.0000,
313,519.29,19257.00,-19257.00,1457.2000,65535.0000,3374.4000,1917.2000,0.0000,0.0000,0.0000,
314,519.80,19238.01,-19238.01,1448.6000,65535.0000,3399.6000,1951.0000,0.0000,0.0000,0.0000,
315,520.32,19219.06,-19219.06,1472.4000,65535.0000,3475.4000,2003.0000,0.0000,0.0000,0.0000,
316,520.83,19200.16,-19200.16,1454.4000,65535.0000,3501.8000,2047.4000,0.0000,0.0000,0.0000,
317,521.34,19181.30,-19181.30,1454.4000,65535.0000,3466.2000,2011.8000,0.0000,0.0000,0.0000,
318,521.85,19162.49,-19162.49,1467.6000,65535.0000,3544.6000,2077.0000,0.0000,0.0000,0.0000,
319,522.36,19143.73,-19143.73,1428.2000,65535.0000,3550.2000,2122.0000,0.0000,0.0000,0.0000,
320,522.88,19125.00,-19125.00,1445.4000,65535.0000,3585.6000,2140.2000,0.0000,0.0000,0.0000,
321,523.39,19106.33,-19106.33,1452.8000,65535.0000,3549.0000,2096.2000,0.0000,0.0000,0.0000,
322,523.90,19087.69,-19087.69,1427.0000,65535.0000,3595.6000,2168.6000,0.0000,0.0000,0.0000,
323,524.41,19069.10,-19069.10,1455.6000,65535.0000,3654.2000,2198.6000,0.0000,0.0000,0.0000,
324,524.92,19050.55,-19050.55,1454.6000,65535.0000,3654.0000,2199.4000,0.0000,0.0000,0.0000,
325,525.43,19032.05,-19032.05,1462.4000,65535.0000,3697.8000,2235.4000,0.0000,0.0000,0.0000,
326,525.94,19013.59,-19013.59,1472.8000,65535.0000,3736.6000,2263.8000,0.0000,0.0000,0.0000,
327,526.45,18995.17,-18995.17,1474.0000,65535.0000,3713.6000,2239.6000,0.0000,0.0000,0.0000,
328,526.96,18976.80,-18976.80,1465.6000,65535.0000,3714.6000,2249.0000,0.0000,0.0000,0.0000,
329,527.47,18958.47,-18958.47,1456.6000,65535.0000,3758.6000,2302.0000,0.0000,0.0000,0.0000,
330,527.98,18940.18,-18940.18,1453.6000,65535.0000,3733.6000,2280.0000,0.0000,0.0000,0.0000,
331,528.49,18921.94,-18921.94,1468.2000,65535.0000,3777.2000,2309.0000,0.0000,0.0000,0.0000,
332,529.00,18903.74,-18903.74,1464.0000,65535.0000,3805.8000,2341.8000,0.0000,0.0000,0.0000,
333,529.50,18885.58,-18885.58,1494.6000,65535.0000,3857.8000,2363.2000,0.0000,0.0000,0.0000,
334,530.01,18867.46,-18867.46,1450.6000,65535.0000,3830.0000,2379.4000,0.0000,0.0000,0.0000,
335,530.52,18849.38,-18849.38,1482.2000,65535.0000,3840.6000,2358.4000,0.0000,0.0000,0.0000,
336,531.03,18831.35,-18831.35,1466.8000,65535.0000,3838.4000,2371.6000,0.0000,0.0000,0.0000,
337,531.54,18813.36,-18813.36,1482.2000,65535.0000,3911.4000,2429.2000,0.0000,0.0000,0.0000,
338,532.04,18795.41,-18795.41,1478.2000,65535.0000,3888.0000,2409.8000,0.0000,0.0000,0.0000,
339,532.55,18777.50,-18777.50,1463.2000,65535.0000,3949.8000,2486.6000,0.0000,0.0000,0.0000,
340,533.06,18759.63,-18759.63,1458.0000,65535.0000,3964.4000,2506.4000,0.0000,0.0000,0.0000,
341,533.57,18741.80,-18741.80,1468.6000,65535.0000,3965.2000,2496.6000,0.0000,0.0000,0.0000,
342,534.07,18724.02,-18724.02,1484.4000,65535.0000,4023.8000,2539.4000,0.0000,0.0000,0.0000,
343,534.58,18706.28,-18706.28,1484.2000,65535.0000,3987.6000,2503.4000,0.0000,0.0000,0.0000,
344,535.09,18688.57,-18688.57,1453.0000,65535.0000,3961.6000,2508.6000,0.0000,0.0000,0.0000,
345,535.59,18670.91,-18670.91,1448.8000,65535.0000,4043.0000,2594.2000,0.0000,0.0000,0.0000,
346,536.10,18653.29,-18653.29,1453.6000,65535.0000,4056.4000,2602.8000,0.0000,0.0000,0.0000,
347,536.60,18635.71,-18635.71,1458.6000,65535.0000,4068.6000,2610.0000,0.0000,0.0000,0.0000,
348,537.11,18618.17,-18618.17,1448.6000,65535.0000,4076.4000,2627.8000,0.0000,0.0000,0.0000,
349,537.62,18600.67,-18600.67,1446.8000,65535.0000,4086.6000,2639.8000,0.0000,0.0000,0.0000,
350,538.12,18583.21,-18583.21,1471.0000,65535.0000,4116.4000,2645.4000,0.0000,0.0000,0.0000,
351,538.63,18565.78,-18565.78,1454.6000,65535.0000,4158.8000,2704.2000,0.0000,0.0000,0.0000,
352,539.13,18548.40,-18548.40,1448.4000,65535.0000,4176.0000,2727.6000,0.0000,0.0000,0.0000,
353,539.63,18531.06,-18531.06,1449.8000,65535.0000,4207.6000,2757.8000,0.0000,0.0000,0.0000,
354,540.14,18513.76,-18513.76,1458.4000,65535.0000,4251.0000,2792.6000,0.0000,0.0000,0.0000,
355,540.64,18496.50,-18496.50,1464.8000,65535.0000,4248.0000,2783.2000,0.0000,0.0000,0.0000,
356,541.15,18479.28,-18479.28,1453.2000,65535.0000,4243.8000,2790.6000,0.0000,0.0000,0.0000,
357,541.65,18462.09,-18462.09,1469.6000,65535.0000,4285.0000,2815.4000,0.0000,0.0000,0.0000,
358,542.15,18444.95,-18444.95,1479.0000,65535.0000,4314.0000,2835.0000,0.0000,0.0000,0.0000,
359,542.66,18427.84,-18427.84,1459.6000,65535.0000,4369.8000,2910.2000,0.0000,0.0000,0.0000,
360,543.16,18410.77,-18410.77,1465.6000,65535.0000,4417.8000,2952.2000,0.0000,0.0000,0.0000,
361,543.66,18393.74,-18393.74,1421.8000,65535.0000,4370.2000,2948.4000,0.0000,0.0000,0.0000,
362,544.17,18376.75,-18376.75,1484.0000,65535.0000,4440.8000,2956.8000,0.0000,0.0000,0.0000,
363,544.67,18359.80,-18359.80,1464.2000,65535.0000,4450.0000,2985.8000,0.0000,0.0000,0.0000,
364,545.17,18342.89,-18342.89,1463.4000,65535.0000,4444.6000,2981.2000,0.0000,0.0000,0.0000,
365,545.67,18326.01,-18326.01,1460.0000,65535.0000,4456.6000,2996.6000,0.0000,0.0000,0.0000,
366,546.17,18309.17,-18309.17,1455.8000,65535.0000,4508.6000,3052.8000,0.0000,0.0000,0.0000,
367,546.68,18292.37,-18292.37,1454.6000,65535.0000,4578.0000,3123.4000,0.0000,0.0000,0.0000,
368,547.18,18275.61,-18275.61,1460.8000,65535.0000,4559.6000,3098.8000,0.0000,0.0000,0.0000,
369,547.68,18258.89,-18258.89,1459.6000,65535.0000,4621.4000,3161.8000,0.0000,0.0000,0.0000,
370,548.18,18242.20,-18242.20,1454.8000,65535.0000,4659.8000,3205.0000,0.0000,0.0000,0.0000,
371,548.68,18225.55,-18225.55,1472.8000,65535.0000,4716.4000,3243.6000,0.0000,0.0000,0.0000,
372,549.18,18208.94,-18208.94,1452.2000,65535.0000,4791.2000,3339.0000,0.0000,0.0000,0.0000,
373,549.68,18192.37,-18192.37,1452.2000,65535.0000,4770.6000,3318.4000,0.0000,0.0000,0.0000,
374,550.18,18175.83,-18175.83,1464.2000,65535.0000,4771.2000,3307.0000,0.0000,0.0000,0.0000,
375,550.68,18159.33,-18159.33,1426.2000,65535.0000,4872.6000,3446.4000,0.0000,0.0000,0.0000,
376,551.18,18142.86,-18142.86,1480.8000,65535.0000,4853.0000,3372.2000,0.0000,0.0000,0.0000,
377,551.68,18126.43,-18126.43,1448.4000,65535.0000,4913.4000,3465.0000,0.0000,0.0000,0.0000,
378,552.18,18110.04,-18110.04,1463.2000,65535.0000,4938.0000,3474.8000,0.0000,0.0000,0.0000,
379,552.68,18093.69,-18093.69,1484.8000,65535.0000,5006.2000,3521.4000,0.0000,0.0000,0.0000,
380,553.18,18077.37,-18077.37,1473.0000,65535.0000,4996.4000,3523.4000,0.0000,0.0000,0.0000,
381,553.68,18061.09,-18061.09,1459.0000,65535.0000,5042.2000,3583.2000,0.0000,0.0000,0.0000,
382,554.18,18044.84,-18044.84,1447.0000,65535.0000,5081.0000,3634.0000,0.0000,0.0000,0.0000,
383,554.67,18028.63,-18028.63,1476.8000,65535.0000,5149.8000,3673.0000,0.0000,0.0000,0.0000,
384,555.17,18012.46,-18012.46,1489.4000,65535.0000,5214.6000,3725.2000,0.0000,0.0000,0.0000,
385,555.67,17996.32,-17996.32,1476.6000,65535.0000,5237.2000,3760.6000,0.0000,0.0000,0.0000,
386,556.17,17980.22,-17980.22,1468.4000,65535.0000,5266.8000,3798.4000,0.0000,0.0000,0.0000,
387,556.66,17964.15,-17964.15,1474.2000,65535.0000,5310.6000,3836.4000,0.0000,0.0000,0.0000,
388,557.16,17948.12,-17948.12,1486.0000,65535.0000,5321.6000,3835.6000,0.0000,0.0000,0.0000,
389,557.66,17932.12,-17932.12,1465.4000,65535.0000,5400.8000,3935.4000,0.0000,0.0000,0.0000,
390,558.16,17916.16,-17916.16,1465.8000,65535.0000,5406.2000,3940.4000,0.0000,0.0000,0.0000,
391,558.65,17900.23,-17900.23,1441.8000,65535.0000,5384.4000,3942.6000,0.0000,0.0000,0.0000,
392,559.15,17884.34,-17884.34,1448.0000,65535.0000,5490.2000,4042.2000,0.0000,0.0000,0.0000,
393,559.64,17868.48,-17868.48,1468.8000,65535.0000,5505.0000,4036.2000,0.0000,0.0000,0.0000,
394,560.14,17852.66,-17852.66,1469.0000,65535.0000,5632.2000,4163.2000,0.0000,0.0000,0.0000,
395,560.64,17836.87,-17836.87,1464.2000,65535.0000,5616.8000,4152.6000,0.0000,0.0000,0.0000,
396,561.13,17821.12,-17821.12,1486.0000,65535.0000,5672.2000,4186.2000,0.0000,0.0000,0.0000,
397,561.63,17805.40,-17805.40,1450.0000,65535.0000,5759.2000,4309.2000,0.0000,0.0000,0.0000,
398,562.12,17789.72,-17789.72,1443.8000,65535.0000,5823.8000,4380.0000,0.0000,0.0000,0.0000,
399,562.62,17774.07,-17774.07,1461.6000,65535.0000,5835.4000,4373.8000,0.0000,0.0000,0.0000,
400,563.11,17758.45,-17758.45,1464.6000,65535.0000,5824.8000,4360.2000,0.0000,0.0000,0.0000,
401,563.61,17742.87,-17742.87,1455.8000,65535.0000,5928.4000,4472.6000,0.0000,0.0000,0.0000,
402,564.10,17727.32,-17727.32,1439.4000,65535.0000,5942.2000,4502.8000,0.0000,0.0000,0.0000,
403,564.60,17711.81,-17711.81,1459.2000,65535.0000,5962.6000,4503.4000,0.0000,0.0000,0.0000,
404,565.09,17696.33,-17696.33,1463.0000,65535.0000,6039.4000,4576.4000,0.0000,0.0000,0.0000,
405,565.58,17680.88,-17680.88,1442.4000,65535.0000,6099.4000,4657.0000,0.0000,0.0000,0.0000,
406,566.08,17665.47,-17665.47,1452.2000,65535.0000,6049.8000,4597.6000,0.0000,0.0000,0.0000,
407,566.57,17650.09,-17650.09,1457.4000,65535.0000,6167.6000,4710.2000,0.0000,0.0000,0.0000,
408,567.06,17634.74,-17634.74,1471.0000,65535.0000,6103.6000,4632.6000,0.0000,0.0000,0.0000,
409,567.56,17619.42,-17619.42,1467.6000,65535.0000,6134.2000,4666.6000,0.0000,0.0000,0.0000,
410,568.05,17604.14,-17604.14,1460.4000,65535.0000,6136.6000,4676.2000,0.0000,0.0000,0.0000,
411,568.54,17588.90,-17588.90,1467.4000,65535.0000,6186.8000,4719.4000,0.0000,0.0000,0.0000,
412,569.03,17573.68,-17573.68,1470.2000,65535.0000,6223.0000,4752.8000,0.0000,0.0000,0.0000,
413,569.52,17558.50,-17558.50,1465.8000,65535.0000,6176.8000,4711.0000,0.0000,0.0000,0.0000,
414,570.02,17543.35,-17543.35,1451.4000,65535.0000,6280.6000,4829.2000,0.0000,0.0000,0.0000,
415,570.51,17528.23,-17528.23,1470.8000,65535.0000,6279.8000,4809.0000,0.0000,0.0000,0.0000,
416,571.00,17513.15,-17513.15,1434.6000,65535.0000,6281.6000,4847.0000,0.0000,0.0000,0.0000,
417,571.49,17498.09,-17498.09,1460.4000,65535.0000,6281.4000,4821.0000,0.0000,0.0000,0.0000,
418,571.98,17483.07,-17483.07,1441.8000,65535.0000,6260.0000,4818.2000,0.0000,0.0000,0.0000,
419,572.47,17468.08,-17468.08,1455.2000,65535.0000,6313.6000,4858.4000,0.0000,0.0000,0.0000,
420,572.96,17453.13,-17453.13,1484.4000,65535.0000,6282.8000,4798.4000,0.0000,0.0000,0.0000,
421,573.45,17438.20,-17438.20,1458.4000,65535.0000,6279.0000,4820.6000,0.0000,0.0000,0.0000,
422,573.94,17423.31,-17423.31,1462.0000,65535.0000,6327.0000,4865.0000,0.0000,0.0000,0.0000,
423,574.43,17408.45,-17408.45,1468.0000,65535.0000,6433.6000,4965.6000,0.0000,0.0000,0.0000,
424,574.92,17393.62,-17393.62,1465.4000,65535.0000,6404.0000,4938.6000,0.0000,0.0000,0.0000,
425,575.41,17378.82,-17378.82,1439.6000,65535.0000,6318.2000,4878.6000,0.0000,0.0000,0.0000,
426,575.90,17364.06,-17364.06,1453.0000,65535.0000,6324.8000,4871.8000,0.0000,0.0000,0.0000,
427,576.39,17349.32,-17349.32,1448.6000,65535.0000,6331.8000,4883.2000,0.0000,0.0000,0.0000,
428,576.88,17334.62,-17334.62,1461.2000,65535.0000,6381.8000,4920.6000,0.0000,0.0000,0.0000,
429,577.37,17319.95,-17319.95,1458.2000,65535.0000,6385.0000,4926.8000,0.0000,0.0000,0.0000,
430,577.86,17305.31,-17305.31,1436.4000,65535.0000,6327.8000,4891.4000,0.0000,0.0000,0.0000,
431,578.35,17290.70,-17290.70,1434.0000,65535.0000,6288.0000,4854.0000,0.0000,0.0000,0.0000,
432,578.83,17276.12,-17276.12,1462.0000,65535.0000,6320.2000,4858.2000,0.0000,0.0000,0.0000,
433,579.32,17261.57,-17261.57,1448.0000,65535.0000,6287.4000,4839.4000,0.0000,0.0000,0.0000,
434,579.81,17247.05,-17247.05,1475.4000,65535.0000,6289.2000,4813.8000,0.0000,0.0000,0.0000,
435,580.30,17232.56,-17232.56,1443.2000,65535.0000,6341.0000,4897.8000,0.0000,0.0000,0.0000,
436,580.78,17218.10,-17218.10,1449.6000,65535.0000,6337.4000,4887.8000,0.0000,0.0000,0.0000,
437,581.27,17203.68,-17203.68,1464.6000,65535.0000,6296.6000,4832.0000,0.0000,0.0000,0.0000,
438,581.76,17189.28,-17189.28,1443.4000,65535.0000,6234.0000,4790.6000,0.0000,0.0000,0.0000,
439,582.24,17174.92,-17174.92,1479.8000,65535.0000,6257.2000,4777.4000,0.0000,0.0000,0.0000,
440,582.73,17160.58,-17160.58,1437.8000,65535.0000,6221.0000,4783.2000,0.0000,0.0000,0.0000,
441,583.22,17146.27,-17146.27,1469.0000,65535.0000,6201.4000,4732.4000,0.0000,0.0000,0.0000,
442,583.70,17132.00,-17132.00,1465.2000,65535.0000,6263.8000,4798.6000,0.0000,0.0000,0.0000,
443,584.19,17117.75,-17117.75,1449.8000,65535.0000,6242.4000,4792.6000,0.0000,0.0000,0.0000,
444,584.67,17103.54,-17103.54,1468.0000,65535.0000,6227.4000,4759.4000,0.0000,0.0000,0.0000,
445,585.16,17089.35,-17089.35,1451.0000,65535.0000,6235.0000,4784.0000,0.0000,0.0000,0.0000,
446,585.64,17075.19,-17075.19,1459.4000,65535.0000,6190.6000,4731.2000,0.0000,0.0000,0.0000,
447,586.13,17061.07,-17061.07,1468.4000,65535.0000,6237.4000,4769.0000,0.0000,0.0000,0.0000,
448,586.61,17046.97,-17046.97,1433.6000,65535.0000,6190.8000,4757.2000,0.0000,0.0000,0.0000,
449,587.10,17032.90,-17032.90,1459.2000,65535.0000,6164.8000,4705.6000,0.0000,0.0000,0.0000,
450,587.58,17018.86,-17018.86,1479.4000,65535.0000,6149.6000,4670.2000,0.0000,0.0000,0.0000,
451,588.07,17004.85,-17004.85,1453.4000,65535.0000,6123.6000,4670.2000,0.0000,0.0000,0.0000,
452,588.55,16990.87,-16990.87,1438.8000,65535.0000,6133.6000,4694.8000,0.0000,0.0000,0.0000,
453,589.04,16976.92,-16976.92,1461.0000,65535.0000,6146.0000,4685.0000,0.0000,0.0000,0.0000,
454,589.52,16962.99,-16962.99,1459.0000,65535.0000,6158.0000,4699.0000,0.0000,0.0000,0.0000,
455,590.00,16949.10,-16949.10,1466.0000,65535.0000,6091.0000,4625.0000,0.0000,0.0000,0.0000,
456,590.48,16935.23,-16935.23,1457.8000,65535.0000,6129.4000,4671.6000,0.0000,0.0000,0.0000,
457,590.97,16921.40,-16921.40,1466.2000,65535.0000,6143.0000,4676.8000,0.0000,0.0000,0.0000,
458,591.45,16907.59,-16907.59,1461.6000,65535.0000,6111.8000,4650.2000,0.0000,0.0000,0.0000,
459,591.93,16893.81,-16893.81,1464.0000,65535.0000,6121.0000,4657.0000,0.0000,0.0000,0.0000,
460,592.42,16880.06,-16880.06,1446.6000,65535.0000,6149.2000,4702.6000,0.0000,0.0000,0.0000,
461,592.90,16866.33,-16866.33,1481.2000,65535.0000,6135.4000,4654.2000,0.0000,0.0000,0.0000,
462,593.38,16852.64,-16852.64,1461.0000,65535.0000,6148.4000,4687.4000,0.0000,0.0000,0.0000,
463,593.86,16838.97,-16838.97,1465.4000,65535.0000,6141.8000,4676.4000,0.0000,0.0000,0.0000,
464,594.34,16825.33,-16825.33,1461.0000,65535.0000,6152.4000,4691.4000,0.0000,0.0000,0.0000,
465,594.82,16811.72,-16811.72,1450.8000,65535.0000,6163.0000,4712.2000,0.0000,0.0000,0.0000,
466,595.30,16798.14,-16798.14,1462.0000,65535.0000,6212.0000,4750.0000,0.0000,0.0000,0.0000,
467,595.78,16784.58,-16784.58,1467.2000,65535.0000,6244.0000,4776.8000,0.0000,0.0000,0.0000,
468,596.27,16771.05,-16771.05,1467.2000,65535.0000,6231.8000,4764.6000,0.0000,0.0000,0.0000,
469,596.75,16757.55,-16757.55,1453.4000,65535.0000,6249.2000,4795.8000,0.0000,0.0000,0.0000,
470,597.23,16744.08,-16744.08,1441.4000,65535.0000,6242.8000,4801.4000,0.0000,0.0000,0.0000,
471,597.71,16730.64,-16730.64,1450.0000,65535.0000,6271.8000,4821.8000,0.0000,0.0000,0.0000,
472,598.19,16717.22,-16717.22,1466.2000,65535.0000,6274.2000,4808.0000,0.0000,0.0000,0.0000,
473,598.67,16703.83,-16703.83,1464.2000,65535.0000,6397.0000,4932.8000,0.0000,0.0000,0.0000,
474,599.14,16690.47,-16690.47,1456.0000,65535.0000,6370.0000,4914.0000,0.0000,0.0000,0.0000,
475,599.62,16677.13,-16677.13,1477.6000,65535.0000,6331.2000,4853.6000,0.0000,0.0000,0.0000,
476,600.10,16663.82,-16663.82,1458.6000,65535.0000,6369.8000,4911.2000,0.0000,0.0000,0.0000,
477,600.58,16650.54,-16650.54,1466.4000,65535.0000,6380.6000,4914.2000,0.0000,0.0000,0.0000,
478,601.06,16637.29,-16637.29,1471.2000,65535.0000,6385.0000,4913.8000,0.0000,0.0000,0.0000,
479,601.54,16624.06,-16624.06,1456.6000,65535.0000,6356.4000,4899.8000,0.0000,0.0000,0.0000,
480,602.02,16610.86,-16610.86,1457.2000,65535.0000,6377.4000,4920.2000,0.0000,0.0000,0.0000,
481,602.49,16597.68,-16597.68,1448.8000,65535.0000,6347.0000,4898.2000,0.0000,0.0000,0.0000,
482,602.97,16584.54,-16584.54,1453.6000,65535.0000,6438.6000,4985.0000,0.0000,0.0000,0.0000,
483,603.45,16571.42,-16571.42,1449.6000,65535.0000,6410.4000,4960.8000,0.0000,0.0000,0.0000,
484,603.93,16558.32,-16558.32,1475.0000,65535.0000,6428.0000,4953.0000,0.0000,0.0000,0.0000,
485,604.40,16545.25,-16545.25,1456.8000,65535.0000,6372.0000,4915.2000,0.0000,0.0000,0.0000,
486,604.88,16532.21,-16532.21,1476.4000,65535.0000,6442.8000,4966.4000,0.0000,0.0000,0.0000,
487,605.36,16519.20,-16519.20,1482.6000,65535.0000,6479.6000,4997.0000,0.0000,0.0000,0.0000,
488,605.83,16506.21,-16506.21,1454.0000,65535.0000,6489.6000,5035.6000,0.0000,0.0000,0.0000,
489,606.31,16493.24,-16493.24,1433.4000,65535.0000,6456.0000,5022.6000,0.0000,0.0000,0.0000,
490,606.78,16480.31,-16480.31,1457.2000,65535.0000,6493.2000,5036.0000,0.0000,0.0000,0.0000,
491,607.26,16467.39,-16467.39,1486.6000,65535.0000,6508.4000,5021.8000,0.0000,0.0000,0.0000,
492,607.74,16454.51,-16454.51,1452.0000,65535.0000,6512.4000,5060.4000,0.0000,0.0000,0.0000,
493,608.21,16441.65,-16441.65,1482.0000,65535.0000,6560.8000,5078.8000,0.0000,0.0000,0.0000,
494,608.69,16428.82,-16428.82,1461.6000,65535.0000,6544.0000,5082.4000,0.0000,0.0000,0.0000,
495,609.16,16416.01,-16416.01,1467.6000,65535.0000,6541.8000,5074.2000,0.0000,0.0000,0.0000,
496,609.64,16403.22,-16403.22,1464.6000,65535.0000,6586.2000,5121.6000,0.0000,0.0000,0.0000,
497,610.11,16390.47,-16390.47,1461.0000,65535.0000,6630.6000,5169.6000,0.0000,0.0000,0.0000,
498,610.59,16377.73,-16377.73,1462.2000,65535.0000,6629.6000,5167.4000,0.0000,0.0000,0.0000,
499,611.06,16365.03,-16365.03,1471.0000,65535.0000,6625.8000,5154.8000,0.0000,0.0000,0.0000,
500,611.53,16352.35,-16352.35,1470.6000,65535.0000,6643.6000,5173.0000,0.0000,0.0000,0.0000,
501,612.01,16339.69,-16339.69,1475.4000,65535.0000,6664.4000,5189.0000,0.0000,0.0000,0.0000,
502,612.48,16327.06,-16327.06,1461.4000,65535.0000,6654.2000,5192.8000,0.0000,0.0000,0.0000,
503,612.95,16314.46,-16314.46,1444.8000,65535.0000,6731.4000,5286.6000,0.0000,0.0000,0.0000,
504,613.43,16301.87,-16301.87,1471.6000,65535.0000,6684.8000,5213.2000,0.0000,0.0000,0.0000,
505,613.90,16289.32,-16289.32,1442.8000,65535.0000,6587.2000,5144.4000,0.0000,0.0000,0.0000,
506,614.37,16276.79,-16276.79,1467.4000,65535.0000,6644.6000,5177.2000,0.0000,0.0000,0.0000,
507,614.84,16264.28,-16264.28,1435.8000,65535.0000,6681.6000,5245.8000,0.0000,0.0000,0.0000,
508,615.32,16251.80,-16251.80,1468.2000,65535.0000,6661.2000,5193.0000,0.0000,0.0000,0.0000,
509,615.79,16239.34,-16239.34,1457.0000,65535.0000,6637.2000,5180.2000,0.0000,0.0000,0.0000,
510,616.26,16226.91,-16226.91,1477.6000,65535.0000,6625.8000,5148.2000,0.0000,0.0000,0.0000,
511,616.73,16214.50,-16214.50,1433.6000,65535.0000,6752.2000,5318.6000,0.0000,0.0000,0.0000,
512,617.20,16202.12,-16202.12,1473.4000,65535.0000,6615.4000,5142.0000,0.0000,0.0000,0.0000,
513,617.67,16189.76,-16189.76,1476.0000,65535.0000,6608.6000,5132.6000,0.0000,0.0000,0.0000,
514,618.15,16177.43,-16177.43,1480.8000,65535.0000,6659.4000,5178.6000,0.0000,0.0000,0.0000,
515,618.62,16165.12,-16165.12,1446.2000,65535.0000,6600.4000,5154.2000,0.0000,0.0000,0.0000,
516,619.09,16152.83,-16152.83,1474.8000,65535.0000,6593.2000,5118.4000,0.0000,0.0000,0.0000,
517,619.56,16140.57,-16140.57,1460.8000,65535.0000,6612.6000,5151.8000,0.0000,0.0000,0.0000,
518,620.03,16128.33,-16128.33,1482.6000,65535.0000,6635.6000,5153.0000,0.0000,0.0000,0.0000,
519,620.50,16116.12,-16116.12,1446.8000,65535.0000,6620.6000,5173.8000,0.0000,0.0000,0.0000,
520,620.97,16103.93,-16103.93,1465.6000,65535.0000,6591.8000,5126.2000,0.0000,0.0000,0.0000,
521,621.44,16091.76,-16091.76,1441.4000,65535.0000,6553.0000,5111.6000,0.0000,0.0000,0.0000,
522,621.91,16079.62,-16079.62,1468.2000,65535.0000,6580.6000,5112.4000,0.0000,0.0000,0.0000,
523,622.37,16067.50,-16067.50,1453.6000,65535.0000,6610.8000,5157.2000,0.0000,0.0000,0.0000,
524,622.84,16055.41,-16055.41,1453.0000,65535.0000,6558.4000,5105.4000,0.0000,0.0000,0.0000,
525,623.31,16043.33,-16043.33,1467.4000,65535.0000,6593.8000,5126.4000,0.0000,0.0000,0.0000,
526,623.78,16031.29,-16031.29,1461.8000,65535.0000,6522.4000,5060.6000,0.0000,0.0000,0.0000,
527,624.25,16019.26,-16019.26,1460.4000,65535.0000,6496.0000,5035.6000,0.0000,0.0000,0.0000,
528,624.72,16007.26,-16007.26,1444.2000,65535.0000,6405.4000,4961.2000,0.0000,0.0000,0.0000,
529,625.18,15995.28,-15995.28,1450.0000,65535.0000,6408.4000,4958.4000,0.0000,0.0000,0.0000,
530,625.65,15983.33,-15983.33,1476.0000,65535.0000,6476.6000,5000.6000,0.0000,0.0000,0.0000,
531,626.12,15971.40,-15971.40,1454.6000,65535.0000,6451.6000,4997.0000,0.0000,0.0000,0.0000,
532,626.59,15959.49,-15959.49,1451.8000,65535.0000,6412.0000,4960.2000,0.0000,0.0000,0.0000,
533,627.05,15947.60,-15947.60,1437.0000,65535.0000,6382.2000,4945.2000,0.0000,0.0000,0.0000,
534,627.52,15935.74,-15935.74,1440.8000,65535.0000,6412.6000,4971.8000,0.0000,0.0000,0.0000,
535,627.99,15923.90,-15923.90,1448.8000,65535.0000,6409.8000,4961.0000,0.0000,0.0000,0.0000,
536,628.45,15912.09,-15912.09,1444.6000,65535.0000,6273.8000,4829.2000,0.0000,0.0000,0.0000,
537,628.92,15900.29,-15900.29,1452.4000,65535.0000,6287.0000,4834.6000,0.0000,0.0000,0.0000,
538,629.39,15888.52,-15888.52,1439.6000,65535.0000,6331.6000,4892.0000,0.0000,0.0000,0.0000,
539,629.85,15876.78,-15876.78,1481.0000,65535.0000,6261.2000,4780.2000,0.0000,0.0000,0.0000,
540,630.32,15865.05,-15865.05,1458.2000,65535.0000,6257.0000,4798.8000,0.0000,0.0000,0.0000,
541,630.78,15853.35,-15853.35,1443.0000,65535.0000,6176.8000,4733.8000,0.0000,0.0000,0.0000,
542,631.25,15841.67,-15841.67,1453.2000,65535.0000,6204.4000,4751.2000,0.0000,0.0000,0.0000,
543,631.71,15830.01,-15830.01,1455.8000,65535.0000,6203.8000,4748.0000,0.0000,0.0000,0.0000,
544,632.18,15818.37,-15818.37,1468.0000,65535.0000,6208.0000,4740.0000,0.0000,0.0000,0.0000,
545,632.64,15806.76,-15806.76,1451.2000,65535.0000,6170.0000,4718.8000,0.0000,0.0000,0.0000,
546,633.10,15795.17,-15795.17,1469.6000,65535.0000,6104.4000,4634.8000,0.0000,0.0000,0.0000,
547,633.57,15783.60,-15783.60,1467.0000,65535.0000,6075.6000,4608.6000,0.0000,0.0000,0.0000,
548,634.03,15772.06,-15772.06,1455.4000,65535.0000,6121.2000,4665.8000,0.0000,0.0000,0.0000,
549,634.50,15760.53,-15760.53,1456.6000,65535.0000,6051.8000,4595.2000,0.0000,0.0000,0.0000,
550,634.96,15749.03,-15749.03,1469.2000,65535.0000,6066.8000,4597.6000,0.0000,0.0000,0.0000,
551,635.42,15737.55,-15737.55,1449.6000,65535.0000,6059.8000,4610.2000,0.0000,0.0000,0.0000,
552,635.89,15726.09,-15726.09,1455.0000,65535.0000,6036.6000,4581.6000,0.0000,0.0000,0.0000,
553,636.35,15714.65,-15714.65,1456.0000,65535.0000,5977.4000,4521.4000,0.0000,0.0000,0.0000,
554,636.81,15703.24,-15703.24,1483.0000,65535.0000,6083.2000,4600.2000,0.0000,0.0000,0.0000,
555,637.27,15691.85,-15691.85,1470.0000,65535.0000,6011.0000,4541.0000,0.0000,0.0000,0.0000,
556,637.74,15680.47,-15680.47,1459.8000,65535.0000,5913.6000,4453.8000,0.0000,0.0000,0.0000,
557,638.20,15669.12,-15669.12,1471.2000,65535.0000,5909.4000,4438.2000,0.0000,0.0000,0.0000,
558,638.66,15657.80,-15657.80,1451.8000,65535.0000,5939.6000,4487.8000,0.0000,0.0000,0.0000,
559,639.12,15646.49,-15646.49,1442.0000,65535.0000,5878.4000,4436.4000,0.0000,0.0000,0.0000,
560,639.58,15635.20,-15635.20,1448.6000,65535.0000,5921.6000,4473.0000,0.0000,0.0000,0.0000,
561,640.04,15623.94,-15623.94,1442.4000,65535.0000,5879.0000,4436.6000,0.0000,0.0000,0.0000,
562,640.50,15612.70,-15612.70,1454.0000,65535.0000,5899.8000,4445.8000,0.0000,0.0000,0.0000,
563,640.97,15601.48,-15601.48,1467.2000,65535.0000,5799.0000,4331.8000,0.0000,0.0000,0.0000,
564,641.43,15590.28,-15590.28,1469.0000,65535.0000,5799.6000,4330.6000,0.0000,0.0000,0.0000,
565,641.89,15579.10,-15579.10,1462.2000,65535.0000,5834.0000,4371.8000,0.0000,0.0000,0.0000,
566,642.35,15567.94,-15567.94,1476.0000,65535.0000,5781.0000,4305.0000,0.0000,0.0000,0.0000,
567,642.81,15556.80,-15556.80,1450.2000,65535.0000,5815.4000,4365.2000,0.0000,0.0000,0.0000,
568,643.27,15545.69,-15545.69,1451.8000,65535.0000,5856.8000,4405.0000,0.0000,0.0000,0.0000,
569,643.72,15534.59,-15534.59,1463.4000,65535.0000,5798.4000,4335.0000,0.0000,0.0000,0.0000,
570,644.18,15523.52,-15523.52,1460.4000,65535.0000,5782.8000,4322.4000,0.0000,0.0000,0.0000,
571,644.64,15512.46,-15512.46,1461.6000,65535.0000,5775.2000,4313.6000,0.0000,0.0000,0.0000,
572,645.10,15501.43,-15501.43,1468.2000,65535.0000,5740.0000,4271.8000,0.0000,0.0000,0.0000,
573,645.56,15490.42,-15490.42,1443.2000,65535.0000,5770.8000,4327.6000,0.0000,0.0000,0.0000,
574,646.02,15479.43,-15479.43,1451.4000,65535.0000,5787.2000,4335.8000,0.0000,0.0000,0.0000,
575,646.48,15468.46,-15468.46,1482.0000,65535.0000,5731.4000,4249.4000,0.0000,0.0000,0.0000,
576,646.93,15457.51,-15457.51,1436.2000,65535.0000,5669.6000,4233.4000,0.0000,0.0000,0.0000,
577,647.39,15446.58,-15446.58,1468.0000,65535.0000,5681.2000,4213.2000,0.0000,0.0000,0.0000,
578,647.85,15435.67,-15435.67,1446.0000,65535.0000,5706.4000,4260.4000,0.0000,0.0000,0.0000,
579,648.31,15424.78,-15424.78,1450.0000,65535.0000,5718.4000,4268.4000,0.0000,0.0000,0.0000,
580,648.76,15413.91,-15413.91,1443.4000,65535.0000,5771.4000,4328.0000,0.0000,0.0000,0.0000,
581,649.22,15403.07,-15403.07,1482.8000,65535.0000,5740.0000,4257.2000,0.0000,0.0000,0.0000,
582,649.68,15392.24,-15392.24,1471.8000,65535.0000,5687.0000,4215.2000,0.0000,0.0000,0.0000,
583,650.13,15381.43,-15381.43,1457.6000,65535.0000,5702.0000,4244.4000,0.0000,0.0000,0.0000,
584,650.59,15370.64,-15370.64,1445.6000,65535.0000,5669.2000,4223.6000,0.0000,0.0000,0.0000,
585,651.05,15359.88,-15359.88,1456.6000,65535.0000,5636.0000,4179.4000,0.0000,0.0000,0.0000,
586,651.50,15349.13,-15349.13,1449.8000,65535.0000,5667.4000,4217.6000,0.0000,0.0000,0.0000,
587,651.96,15338.40,-15338.40,1453.8000,65535.0000,5700.2000,4246.4000,0.0000,0.0000,0.0000,
588,652.41,15327.69,-15327.69,1452.6000,65535.0000,5743.4000,4290.8000,0.0000,0.0000,0.0000,
589,652.87,15317.01,-15317.01,1424.8000,65535.0000,5677.2000,4252.4000,0.0000,0.0000,0.0000,
590,653.32,15306.34,-15306.34,1447.4000,65535.0000,5674.2000,4226.8000,0.0000,0.0000,0.0000,
591,653.78,15295.69,-15295.69,1471.4000,65535.0000,5678.2000,4206.8000,0.0000,0.0000,0.0000,
592,654.23,15285.06,-15285.06,1459.6000,65535.0000,5738.0000,4278.4000,0.0000,0.0000,0.0000,
593,654.69,15274.45,-15274.45,1442.8000,65535.0000,5726.4000,4283.6000,0.0000,0.0000,0.0000,
594,655.14,15263.86,-15263.86,1451.2000,65535.0000,5695.8000,4244.6000,0.0000,0.0000,0.0000,
595,655.60,15253.29,-15253.29,1447.8000,65535.0000,5739.6000,4291.8000,0.0000,0.0000,0.0000,
596,656.05,15242.74,-15242.74,1480.6000,65535.0000,5792.4000,4311.8000,0.0000,0.0000,0.0000,
597,656.50,15232.21,-15232.21,1461.0000,65535.0000,5761.6000,4300.6000,0.0000,0.0000,0.0000,
598,656.96,15221.70,-15221.70,1453.4000,65535.0000,5758.4000,4305.0000,0.0000,0.0000,0.0000,
599,657.41,15211.21,-15211.21,1453.2000,65535.0000,5794.4000,4341.2000,0.0000,0.0000,0.0000,
600,657.86,15200.74,-15200.74,1448.2000,65535.0000,5763.8000,4315.6000,0.0000,0.0000,0.0000,
601,658.32,15190.29,-15190.29,1469.2000,65535.0000,5745.6000,4276.4000,0.0000,0.0000,0.0000,
602,658.77,15179.85,-15179.85,1456.8000,65535.0000,5770.0000,4313.2000,0.0000,0.0000,0.0000,
603,659.22,15169.44,-15169.44,1446.4000,65535.0000,5722.8000,4276.4000,0.0000,0.0000,0.0000,
604,659.67,15159.04,-15159.04,1449.6000,65535.0000,5820.8000,4371.2000,0.0000,0.0000,0.0000,
605,660.12,15148.66,-15148.66,1462.8000,65535.0000,5830.4000,4367.6000,0.0000,0.0000,0.0000,
606,660.58,15138.31,-15138.31,1464.0000,65535.0000,5810.0000,4346.0000,0.0000,0.0000,0.0000,
607,661.03,15127.97,-15127.97,1469.0000,65535.0000,5888.2000,4419.2000,0.0000,0.0000,0.0000,
608,661.48,15117.65,-15117.65,1475.6000,65535.0000,5824.6000,4349.0000,0.0000,0.0000,0.0000,
609,661.93,15107.35,-15107.35,1489.2000,65535.0000,5839.0000,4349.8000,0.0000,0.0000,0.0000,
610,662.38,15097.07,-15097.07,1445.2000,65535.0000,5871.6000,4426.4000,0.0000,0.0000,0.0000,
611,662.83,15086.80,-15086.80,1435.8000,65535.0000,5862.6000,4426.8000,0.0000,0.0000,0.0000,
612,663.28,15076.56,-15076.56,1435.2000,65535.0000,5888.0000,4452.8000,0.0000,0.0000,0.0000,
613,663.73,15066.33,-15066.33,1448.2000,65535.0000,5872.6000,4424.4000,0.0000,0.0000,0.0000,
614,664.18,15056.12,-15056.12,1465.6000,65535.0000,5879.2000,4413.6000,0.0000,0.0000,0.0000,
615,664.63,15045.93,-15045.93,1450.8000,65535.0000,5851.0000,4400.2000,0.0000,0.0000,0.0000,
616,665.08,15035.76,-15035.76,1492.2000,65535.0000,5923.0000,4430.8000,0.0000,0.0000,0.0000,
617,665.53,15025.61,-15025.61,1448.6000,65535.0000,5977.2000,4528.6000,0.0000,0.0000,0.0000,
618,665.98,15015.48,-15015.48,1448.8000,65535.0000,5948.6000,4499.8000,0.0000,0.0000,0.0000,
619,666.43,15005.36,-15005.36,1458.6000,65535.0000,5974.2000,4515.6000,0.0000,0.0000,0.0000,
620,666.88,14995.27,-14995.27,1449.0000,65535.0000,5938.8000,4489.8000,0.0000,0.0000,0.0000,
621,667.33,14985.19,-14985.19,1482.4000,65535.0000,6003.2000,4520.8000,0.0000,0.0000,0.0000,
622,667.77,14975.13,-14975.13,1462.6000,65535.0000,6031.0000,4568.4000,0.0000,0.0000,0.0000,
623,668.22,14965.09,-14965.09,1450.2000,65535.0000,6094.6000,4644.4000,0.0000,0.0000,0.0000,
624,668.67,14955.06,-14955.06,1476.0000,65535.0000,6115.0000,4639.0000,0.0000,0.0000,0.0000,
625,669.12,14945.06,-14945.06,1462.4000,65535.0000,6047.4000,4585.0000,0.0000,0.0000,0.0000,
626,669.56,14935.07,-14935.07,1469.2000,65535.0000,6062.0000,4592.8000,0.0000,0.0000,0.0000,
627,670.01,14925.10,-14925.10,1448.6000,65535.0000,6055.8000,4607.2000,0.0000,0.0000,0.0000,
628,670.46,14915.15,-14915.15,1477.4000,65535.0000,6000.2000,4522.8000,0.0000,0.0000,0.0000,
629,670.91,14905.22,-14905.22,1476.6000,65535.0000,6030.4000,4553.8000,0.0000,0.0000,0.0000,
630,671.35,14895.30,-14895.30,1444.8000,65535.0000,6090.4000,4645.6000,0.0000,0.0000,0.0000,
631,671.80,14885.40,-14885.40,1420.4000,65535.0000,6103.2000,4682.8000,0.0000,0.0000,0.0000,
632,672.25,14875.52,-14875.52,1460.2000,65535.0000,6175.0000,4714.8000,0.0000,0.0000,0.0000,
633,672.69,14865.66,-14865.66,1473.6000,65535.0000,6152.2000,4678.6000,0.0000,0.0000,0.0000,
634,673.14,14855.82,-14855.82,1454.2000,65535.0000,6225.0000,4770.8000,0.0000,0.0000,0.0000,
635,673.58,14845.99,-14845.99,1449.0000,65535.0000,6243.4000,4794.4000,0.0000,0.0000,0.0000,
636,674.03,14836.18,-14836.18,1436.2000,65535.0000,6238.0000,4801.8000,0.0000,0.0000,0.0000,
637,674.47,14826.39,-14826.39,1456.8000,65535.0000,6212.0000,4755.2000,0.0000,0.0000,0.0000,
638,674.92,14816.61,-14816.61,1436.0000,65535.0000,6134.6000,4698.6000,0.0000,0.0000,0.0000,
639,675.36,14806.86,-14806.86,1431.0000,65535.0000,6194.0000,4763.0000,0.0000,0.0000,0.0000,
640,675.81,14797.12,-14797.12,1475.6000,65535.0000,6224.4000,4748.8000,0.0000,0.0000,0.0000,
641,676.25,14787.40,-14787.40,1470.8000,65535.0000,6238.6000,4767.8000,0.0000,0.0000,0.0000,
642,676.70,14777.69,-14777.69,1466.2000,65535.0000,6263.0000,4796.8000,0.0000,0.0000,0.0000,
643,677.14,14768.01,-14768.01,1456.2000,65535.0000,6290.0000,4833.8000,0.0000,0.0000,0.0000,
644,677.58,14758.34,-14758.34,1456.0000,65535.0000,6216.6000,4760.6000,0.0000,0.0000,0.0000,
645,678.03,14748.68,-14748.68,1450.8000,65535.0000,6280.8000,4830.0000,0.0000,0.0000,0.0000,
646,678.47,14739.05,-14739.05,1453.2000,65535.0000,6315.4000,4862.2000,0.0000,0.0000,0.0000,
647,678.91,14729.43,-14729.43,1473.4000,65535.0000,6297.2000,4823.8000,0.0000,0.0000,0.0000,
648,679.36,14719.83,-14719.83,1442.8000,65535.0000,6324.0000,4881.2000,0.0000,0.0000,0.0000,
649,679.80,14710.24,-14710.24,1445.0000,65535.0000,6357.6000,4912.6000,0.0000,0.0000,0.0000,
650,680.24,14700.68,-14700.68,1455.0000,65535.0000,6391.8000,4936.8000,0.0000,0.0000,0.0000,
651,680.68,14691.13,-14691.13,1468.6000,65535.0000,6377.8000,4909.2000,0.0000,0.0000,0.0000,
652,681.12,14681.59,-14681.59,1451.4000,65535.0000,6337.4000,4886.0000,0.0000,0.0000,0.0000,
653,681.57,14672.08,-14672.08,1468.6000,65535.0000,6370.8000,4902.2000,0.0000,0.0000,0.0000,
654,682.01,14662.58,-14662.58,1472.2000,65535.0000,6428.2000,4956.0000,0.0000,0.0000,0.0000,
655,682.45,14653.09,-14653.09,1451.0000,65535.0000,6414.2000,4963.2000,0.0000,0.0000,0.0000,
656,682.89,14643.63,-14643.63,1456.4000,65535.0000,6400.4000,4944.0000,0.0000,0.0000,0.0000,
657,683.33,14634.18,-14634.18,1476.4000,65535.0000,6428.0000,4951.6000,0.0000,0.0000,0.0000,
658,683.77,14624.75,-14624.75,1464.8000,65535.0000,6383.0000,4918.2000,0.0000,0.0000,0.0000,
659,684.21,14615.33,-14615.33,1466.4000,65535.0000,6436.8000,4970.4000,0.0000,0.0000,0.0000,
660,684.65,14605.93,-14605.93,1468.8000,65535.0000,6422.4000,4953.6000,0.0000,0.0000,0.0000,
661,685.09,14596.55,-14596.55,1485.0000,65535.0000,6389.0000,4904.0000,0.0000,0.0000,0.0000,
662,685.53,14587.18,-14587.18,1458.2000,65535.0000,6451.0000,4992.8000,0.0000,0.0000,0.0000,
663,685.97,14577.83,-14577.83,1427.4000,65535.0000,6461.0000,5033.6000,0.0000,0.0000,0.0000,
664,686.41,14568.50,-14568.50,1452.8000,65535.0000,6508.4000,5055.6000,0.0000,0.0000,0.0000,
665,686.85,14559.18,-14559.18,1469.8000,65535.0000,6459.2000,4989.4000,0.0000,0.0000,0.0000,
666,687.29,14549.88,-14549.88,1461.2000,65535.0000,6424.2000,4963.0000,0.0000,0.0000,0.0000,
667,687.73,14540.60,-14540.60,1433.4000,65535.0000,6462.2000,5028.8000,0.0000,0.0000,0.0000,
668,688.17,14531.33,-14531.33,1440.6000,65535.0000,6479.8000,5039.2000,0.0000,0.0000,0.0000,
669,688.61,14522.08,-14522.08,1438.6000,65535.0000,6474.8000,5036.2000,0.0000,0.0000,0.0000,
670,689.04,14512.84,-14512.84,1462.8000,65535.0000,6432.0000,4969.2000,0.0000,0.0000,0.0000,
671,689.48,14503.63,-14503.63,1453.6000,65535.0000,6479.8000,5026.2000,0.0000,0.0000,0.0000,
672,689.92,14494.42,-14494.42,1437.2000,65535.0000,6447.2000,5010.0000,0.0000,0.0000,0.0000,
673,690.36,14485.24,-14485.24,1455.2000,65535.0000,6487.0000,5031.8000,0.0000,0.0000,0.0000,
674,690.80,14476.06,-14476.06,1448.0000,65535.0000,6507.4000,5059.4000,0.0000,0.0000,0.0000,
675,691.23,14466.91,-14466.91,1424.0000,65535.0000,6549.2000,5125.2000,0.0000,0.0000,0.0000,
676,691.67,14457.77,-14457.77,1464.4000,65535.0000,6469.0000,5004.6000,0.0000,0.0000,0.0000,
677,692.11,14448.65,-14448.65,1463.8000,65535.0000,6483.0000,5019.2000,0.0000,0.0000,0.0000,
678,692.54,14439.54,-14439.54,1466.6000,65535.0000,6437.6000,4971.0000,0.0000,0.0000,0.0000,
679,692.98,14430.45,-14430.45,1453.8000,65535.0000,6482.8000,5029.0000,0.0000,0.0000,0.0000,
680,693.42,14421.37,-14421.37,1431.6000,65535.0000,6401.0000,4969.4000,0.0000,0.0000,0.0000,
681,693.85,14412.31,-14412.31,1457.0000,65535.0000,6404.4000,4947.4000,0.0000,0.0000,0.0000,
682,694.29,14403.27,-14403.27,1470.6000,65535.0000,6442.2000,4971.6000,0.0000,0.0000,0.0000,
683,694.72,14394.24,-14394.24,1437.0000,65535.0000,6459.6000,5022.6000,0.0000,0.0000,0.0000,
684,695.16,14385.23,-14385.23,1456.6000,65535.0000,6393.6000,4937.0000,0.0000,0.0000,0.0000,
685,695.59,14376.23,-14376.23,1471.8000,65535.0000,6402.4000,4930.6000,0.0000,0.0000,0.0000,
686,696.03,14367.25,-14367.25,1453.8000,65535.0000,6444.2000,4990.4000,0.0000,0.0000,0.0000,
687,696.46,14358.29,-14358.29,1464.2000,65535.0000,6456.2000,4992.0000,0.0000,0.0000,0.0000,
688,696.90,14349.34,-14349.34,1480.2000,65535.0000,6432.4000,4952.2000,0.0000,0.0000,0.0000,
689,697.33,14340.40,-14340.40,1428.2000,65535.0000,6419.2000,4991.0000,0.0000,0.0000,0.0000,
690,697.76,14331.48,-14331.48,1433.6000,65535.0000,6399.0000,4965.4000,0.0000,0.0000,0.0000,
691,698.20,14322.58,-14322.58,1476.2000,65535.0000,6389.6000,4913.4000,0.0000,0.0000,0.0000,
692,698.63,14313.69,-14313.69,1473.2000,65535.0000,6441.2000,4968.0000,0.0000,0.0000,0.0000,
693,699.07,14304.82,-14304.82,1469.8000,65535.0000,6397.0000,4927.2000,0.0000,0.0000,0.0000,
694,699.50,14295.96,-14295.96,1463.2000,65535.0000,6365.2000,4902.0000,0.0000,0.0000,0.0000,
695,699.93,14287.12,-14287.12,1456.0000,65535.0000,6408.6000,4952.6000,0.0000,0.0000,0.0000,
696,700.36,14278.29,-14278.29,1437.4000,65535.0000,6361.2000,4923.8000,0.0000,0.0000,0.0000,
697,700.80,14269.48,-14269.48,1432.0000,65535.0000,6402.8000,4970.8000,0.0000,0.0000,0.0000,
698,701.23,14260.68,-14260.68,1446.2000,65535.0000,6407.0000,4960.8000,0.0000,0.0000,0.0000,
699,701.66,14251.90,-14251.90,1485.0000,65535.0000,6431.8000,4946.8000,0.0000,0.0000,0.0000,
700,702.09,14243.13,-14243.13,1458.2000,65535.0000,6409.2000,4951.0000,0.0000,0.0000,0.0000,
701,702.52,14234.38,-14234.38,1456.0000,65535.0000,6389.6000,4933.6000,0.0000,0.0000,0.0000,
702,702.96,14225.64,-14225.64,1433.0000,65535.0000,6383.0000,4950.0000,0.0000,0.0000,0.0000,
703,703.39,14216.92,-14216.92,1450.6000,65535.0000,6381.2000,4930.6000,0.0000,0.0000,0.0000,
704,703.82,14208.21,-14208.21,1450.0000,65535.0000,6323.2000,4873.2000,0.0000,0.0000,0.0000,
705,704.25,14199.52,-14199.52,1478.8000,65535.0000,6362.4000,4883.6000,0.0000,0.0000,0.0000,
706,704.68,14190.84,-14190.84,1470.0000,65535.0000,6354.2000,4884.2000,0.0000,0.0000,0.0000,
707,705.11,14182.18,-14182.18,1461.6000,65535.0000,6323.4000,4861.8000,0.0000,0.0000,0.0000,
708,705.54,14173.53,-14173.53,1479.8000,65535.0000,6335.0000,4855.2000,0.0000,0.0000,0.0000,
709,705.97,14164.90,-14164.90,1457.2000,65535.0000,6322.2000,4865.0000,0.0000,0.0000,0.0000,
710,706.40,14156.28,-14156.28,1466.6000,65535.0000,6313.2000,4846.6000,0.0000,0.0000,0.0000,
711,706.83,14147.68,-14147.68,1447.0000,65535.0000,6295.8000,4848.8000,0.0000,0.0000,0.0000,
712,707.26,14139.09,-14139.09,1463.6000,65535.0000,6324.8000,4861.2000,0.0000,0.0000,0.0000,
713,707.69,14130.52,-14130.52,1416.2000,65535.0000,6251.6000,4835.4000,0.0000,0.0000,0.0000,
714,708.12,14121.96,-14121.96,1448.4000,65535.0000,6232.6000,4784.2000,0.0000,0.0000,0.0000,
715,708.55,14113.42,-14113.42,1468.0000,65535.0000,6227.4000,4759.4000,0.0000,0.0000,0.0000,
716,708.97,14104.88,-14104.88,1437.4000,65535.0000,6288.2000,4850.8000,0.0000,0.0000,0.0000,
717,709.40,14096.37,-14096.37,1447.6000,65535.0000,6295.0000,4847.4000,0.0000,0.0000,0.0000,
718,709.83,14087.87,-14087.87,1471.4000,65535.0000,6341.2000,4869.8000,0.0000,0.0000,0.0000,
719,710.26,14079.38,-14079.38,1469.0000,65535.0000,6291.8000,4822.8000,0.0000,0.0000,0.0000,
720,710.69,14070.91,-14070.91,1467.0000,65535.0000,6271.4000,4804.4000,0.0000,0.0000,0.0000,
721,711.11,14062.45,-14062.45,1469.8000,65535.0000,6248.8000,4779.0000,0.0000,0.0000,0.0000,
722,711.54,14054.01,-14054.01,1452.6000,65535.0000,6287.8000,4835.2000,0.0000,0.0000,0.0000,
723,711.97,14045.58,-14045.58,1441.4000,65535.0000,6259.8000,4818.4000,0.0000,0.0000,0.0000,
724,712.39,14037.16,-14037.16,1440.4000,65535.0000,6321.8000,4881.4000,0.0000,0.0000,0.0000,
725,712.82,14028.76,-14028.76,1462.0000,65535.0000,6260.2000,4798.2000,0.0000,0.0000,0.0000,
726,713.25,14020.38,-14020.38,1452.8000,65535.0000,6317.4000,4864.6000,0.0000,0.0000,0.0000,
727,713.67,14012.00,-14012.00,1453.4000,65535.0000,6257.4000,4804.0000,0.0000,0.0000,0.0000,
728,714.10,14003.64,-14003.64,1413.4000,65535.0000,6281.6000,4868.2000,0.0000,0.0000,0.0000,
729,714.53,13995.30,-13995.30,1482.8000,65535.0000,6265.0000,4782.2000,0.0000,0.0000,0.0000,
730,714.95,13986.97,-13986.97,1453.0000,65535.0000,6291.4000,4838.4000,0.0000,0.0000,0.0000,
731,715.38,13978.65,-13978.65,1455.6000,65535.0000,6305.8000,4850.2000,0.0000,0.0000,0.0000,
732,715.80,13970.35,-13970.35,1472.6000,65535.0000,6201.8000,4729.2000,0.0000,0.0000,0.0000,
733,716.23,13962.06,-13962.06,1472.8000,65535.0000,6204.8000,4732.0000,0.0000,0.0000,0.0000,
734,716.65,13953.79,-13953.79,1436.0000,65535.0000,6192.6000,4756.6000,0.0000,0.0000,0.0000,
735,717.08,13945.53,-13945.53,1470.0000,65535.0000,6258.6000,4788.6000,0.0000,0.0000,0.0000,
736,717.50,13937.28,-13937.28,1434.8000,65535.0000,6271.8000,4837.0000,0.0000,0.0000,0.0000,
737,717.92,13929.05,-13929.05,1457.2000,65535.0000,6268.4000,4811.2000,0.0000,0.0000,0.0000,
738,718.35,13920.83,-13920.83,1475.4000,65535.0000,6265.6000,4790.2000,0.0000,0.0000,0.0000,
739,718.77,13912.63,-13912.63,1456.8000,65535.0000,6245.2000,4788.4000,0.0000,0.0000,0.0000,
740,719.20,13904.43,-13904.43,1451.8000,65535.0000,6237.2000,4785.4000,0.0000,0.0000,0.0000,
741,719.62,13896.26,-13896.26,1453.8000,65535.0000,6201.0000,4747.2000,0.0000,0.0000,0.0000,
742,720.04,13888.09,-13888.09,1452.2000,65535.0000,6235.4000,4783.2000,0.0000,0.0000,0.0000,
743,720.46,13879.94,-13879.94,1453.8000,65535.0000,6157.0000,4703.2000,0.0000,0.0000,0.0000,
744,720.89,13871.81,-13871.81,1467.6000,65535.0000,6194.8000,4727.2000,0.0000,0.0000,0.0000,
745,721.31,13863.68,-13863.68,1472.6000,65535.0000,6181.8000,4709.2000,0.0000,0.0000,0.0000,
746,721.73,13855.57,-13855.57,1455.2000,65535.0000,6175.2000,4720.0000,0.0000,0.0000,0.0000,
747,722.15,13847.48,-13847.48,1447.0000,65535.0000,6224.2000,4777.2000,0.0000,0.0000,0.0000,
748,722.57,13839.39,-13839.39,1430.4000,65535.0000,6171.2000,4740.8000,0.0000,0.0000,0.0000,
749,723.00,13831.33,-13831.33,1466.4000,65535.0000,6186.0000,4719.6000,0.0000,0.0000,0.0000,
750,723.42,13823.27,-13823.27,1472.0000,65535.0000,6163.6000,4691.6000,0.0000,0.0000,0.0000,
751,723.84,13815.23,-13815.23,1420.0000,65535.0000,6239.4000,4819.4000,0.0000,0.0000,0.0000,
752,724.26,13807.20,-13807.20,1449.8000,65535.0000,6196.6000,4746.8000,0.0000,0.0000,0.0000,
753,724.68,13799.18,-13799.18,1451.2000,65535.0000,6155.4000,4704.2000,0.0000,0.0000,0.0000,
754,725.10,13791.18,-13791.18,1458.4000,65535.0000,6177.2000,4718.8000,0.0000,0.0000,0.0000,
755,725.52,13783.19,-13783.19,1453.6000,65535.0000,6165.6000,4712.0000,0.0000,0.0000,0.0000,
756,725.94,13775.22,-13775.22,1452.4000,65535.0000,6206.0000,4753.6000,0.0000,0.0000,0.0000,
757,726.36,13767.26,-13767.26,1452.0000,65535.0000,6173.6000,4721.6000,0.0000,0.0000,0.0000,
758,726.78,13759.31,-13759.31,1462.8000,65535.0000,6225.0000,4762.2000,0.0000,0.0000,0.0000,
759,727.20,13751.37,-13751.37,1459.4000,65535.0000,6174.2000,4714.8000,0.0000,0.0000,0.0000,
760,727.62,13743.45,-13743.45,1459.0000,65535.0000,6165.6000,4706.6000,0.0000,0.0000,0.0000,
761,728.04,13735.54,-13735.54,1430.0000,65535.0000,6227.0000,4797.0000,0.0000,0.0000,0.0000,
762,728.46,13727.64,-13727.64,1449.0000,65535.0000,6224.6000,4775.6000,0.0000,0.0000,0.0000,
763,728.88,13719.76,-13719.76,1439.0000,65535.0000,6252.4000,4813.4000,0.0000,0.0000,0.0000,
764,729.29,13711.89,-13711.89,1452.2000,65535.0000,6240.0000,4787.8000,0.0000,0.0000,0.0000,
765,729.71,13704.03,-13704.03,1443.8000,65535.0000,6188.0000,4744.2000,0.0000,0.0000,0.0000,
766,730.13,13696.19,-13696.19,1456.4000,65535.0000,6167.4000,4711.0000,0.0000,0.0000,0.0000,
767,730.55,13688.35,-13688.35,1470.8000,65535.0000,6103.2000,4632.4000,0.0000,0.0000,0.0000,
768,730.97,13680.53,-13680.53,1473.6000,65535.0000,6176.6000,4703.0000,0.0000,0.0000,0.0000,
769,731.38,13672.73,-13672.73,1441.0000,65535.0000,6200.4000,4759.4000,0.0000,0.0000,0.0000,
770,731.80,13664.94,-13664.94,1441.4000,65535.0000,6153.6000,4712.2000,0.0000,0.0000,0.0000,
771,732.22,13657.16,-13657.16,1445.8000,65535.0000,6169.0000,4723.2000,0.0000,0.0000,0.0000,
772,732.63,13649.39,-13649.39,1478.4000,65535.0000,6211.6000,4733.2000,0.0000,0.0000,0.0000,
773,733.05,13641.63,-13641.63,1460.6000,65535.0000,6216.0000,4755.4000,0.0000,0.0000,0.0000,
774,733.47,13633.89,-13633.89,1458.2000,65535.0000,6282.6000,4824.4000,0.0000,0.0000,0.0000,
775,733.88,13626.16,-13626.16,1441.0000,65535.0000,6205.6000,4764.6000,0.0000,0.0000,0.0000,
776,734.30,13618.45,-13618.45,1454.8000,65535.0000,6170.6000,4715.8000,0.0000,0.0000,0.0000,
777,734.71,13610.74,-13610.74,1462.2000,65535.0000,6175.6000,4713.4000,0.0000,0.0000,0.0000,
778,735.13,13603.05,-13603.05,1443.4000,65535.0000,6145.6000,4702.2000,0.0000,0.0000,0.0000,
779,735.54,13595.37,-13595.37,1449.4000,65535.0000,6126.2000,4676.8000,0.0000,0.0000,0.0000,
780,735.96,13587.71,-13587.71,1454.2000,65535.0000,6197.0000,4742.8000,0.0000,0.0000,0.0000,
781,736.37,13580.05,-13580.05,1459.6000,65535.0000,6222.8000,4763.2000,0.0000,0.0000,0.0000,
782,736.79,13572.41,-13572.41,1471.2000,65535.0000,6165.2000,4694.0000,0.0000,0.0000,0.0000,
783,737.20,13564.78,-13564.78,1424.0000,65535.0000,6156.4000,4732.4000,0.0000,0.0000,0.0000,
784,737.62,13557.17,-13557.17,1450.8000,65535.0000,6088.2000,4637.4000,0.0000,0.0000,0.0000,
785,738.03,13549.56,-13549.56,1439.0000,65535.0000,6146.2000,4707.2000,0.0000,0.0000,0.0000,
786,738.44,13541.97,-13541.97,1438.2000,65535.0000,6145.8000,4707.6000,0.0000,0.0000,0.0000,
787,738.86,13534.39,-13534.39,1430.0000,65535.0000,6086.6000,4656.6000,0.0000,0.0000,0.0000,
788,739.27,13526.83,-13526.83,1447.4000,65535.0000,6136.4000,4689.0000,0.0000,0.0000,0.0000,
789,739.68,13519.27,-13519.27,1469.4000,65535.0000,6165.4000,4696.0000,0.0000,0.0000,0.0000,
790,740.10,13511.73,-13511.73,1466.8000,65535.0000,6158.2000,4691.4000,0.0000,0.0000,0.0000,
791,740.51,13504.20,-13504.20,1443.2000,65535.0000,6187.8000,4744.6000,0.0000,0.0000,0.0000,
792,740.92,13496.69,-13496.69,1451.6000,65535.0000,6159.6000,4708.0000,0.0000,0.0000,0.0000,
793,741.33,13489.18,-13489.18,1444.8000,65535.0000,6187.4000,4742.6000,0.0000,0.0000,0.0000,
794,741.75,13481.69,-13481.69,1463.4000,65535.0000,6217.4000,4754.0000,0.0000,0.0000,0.0000,
795,742.16,13474.21,-13474.21,1442.6000,65535.0000,6222.2000,4779.6000,0.0000,0.0000,0.0000,
796,742.57,13466.74,-13466.74,1443.6000,65535.0000,6098.4000,4654.8000,0.0000,0.0000,0.0000,
797,742.98,13459.28,-13459.28,1490.0000,65535.0000,6128.6000,4638.6000,0.0000,0.0000,0.0000,
798,743.39,13451.84,-13451.84,1443.4000,65535.0000,6121.6000,4678.2000,0.0000,0.0000,0.0000,
799,743.80,13444.40,-13444.40,1445.6000,65535.0000,6117.8000,4672.2000,0.0000,0.0000,0.0000,
800,744.21,13436.98,-13436.98,1452.8000,65535.0000,6101.8000,4649.0000,0.0000,0.0000,0.0000,
801,744.63,13429.58,-13429.58,1459.0000,65535.0000,6099.2000,4640.2000,0.0000,0.0000,0.0000,
802,745.04,13422.18,-13422.18,1446.4000,65535.0000,6111.6000,4665.2000,0.0000,0.0000,0.0000,
803,745.45,13414.79,-13414.79,1456.8000,65535.0000,6116.8000,4660.0000,0.0000,0.0000,0.0000,
804,745.86,13407.42,-13407.42,1425.6000,65535.0000,6096.2000,4670.6000,0.0000,0.0000,0.0000,
805,746.27,13400.06,-13400.06,1455.6000,65535.0000,6077.8000,4622.2000,0.0000,0.0000,0.0000,
806,746.67,13392.71,-13392.71,1454.8000,65535.0000,6091.8000,4637.0000,0.0000,0.0000,0.0000,
807,747.08,13385.38,-13385.38,1457.4000,65535.0000,6106.0000,4648.6000,0.0000,0.0000,0.0000,
808,747.49,13378.05,-13378.05,1443.2000,65535.0000,6087.4000,4644.2000,0.0000,0.0000,0.0000,
809,747.90,13370.74,-13370.74,1436.8000,65535.0000,6020.6000,4583.8000,0.0000,0.0000,0.0000,
810,748.31,13363.44,-13363.44,1464.6000,65535.0000,5984.8000,4520.2000,0.0000,0.0000,0.0000,
811,748.72,13356.15,-13356.15,1454.4000,65535.0000,5994.2000,4539.8000,0.0000,0.0000,0.0000,
812,749.13,13348.87,-13348.87,1439.4000,65535.0000,5992.6000,4553.2000,0.0000,0.0000,0.0000,
813,749.54,13341.60,-13341.60,1455.0000,65535.0000,6042.8000,4587.8000,0.0000,0.0000,0.0000,
814,749.94,13334.35,-13334.35,1454.4000,65535.0000,6024.4000,4570.0000,0.0000,0.0000,0.0000,
815,750.35,13327.10,-13327.10,1453.2000,65535.0000,6057.4000,4604.2000,0.0000,0.0000,0.0000,
816,750.76,13319.87,-13319.87,1478.2000,65535.0000,6054.8000,4576.6000,0.0000,0.0000,0.0000,
817,751.17,13312.65,-13312.65,1436.4000,65535.0000,6008.6000,4572.2000,0.0000,0.0000,0.0000,
818,751.57,13305.45,-13305.45,1457.4000,65535.0000,6029.8000,4572.4000,0.0000,0.0000,0.0000,
819,751.98,13298.25,-13298.25,1459.4000,65535.0000,6045.4000,4586.0000,0.0000,0.0000,0.0000,
820,752.39,13291.06,-13291.06,1432.8000,65535.0000,5987.4000,4554.6000,0.0000,0.0000,0.0000,
821,752.79,13283.89,-13283.89,1448.4000,65535.0000,6005.4000,4557.0000,0.0000,0.0000,0.0000,
822,753.20,13276.73,-13276.73,1440.4000,65535.0000,5952.4000,4512.0000,0.0000,0.0000,0.0000,
823,753.60,13269.58,-13269.58,1437.0000,65535.0000,5973.0000,4536.0000,0.0000,0.0000,0.0000,
824,754.01,13262.44,-13262.44,1473.4000,65535.0000,5999.8000,4526.4000,0.0000,0.0000,0.0000,
825,754.41,13255.31,-13255.31,1458.8000,65535.0000,5941.2000,4482.4000,0.0000,0.0000,0.0000,
826,754.82,13248.19,-13248.19,1461.4000,65535.0000,6001.8000,4540.4000,0.0000,0.0000,0.0000,
827,755.22,13241.09,-13241.09,1462.0000,65535.0000,5979.6000,4517.6000,0.0000,0.0000,0.0000,
828,755.63,13233.99,-13233.99,1455.8000,65535.0000,5988.2000,4532.4000,0.0000,0.0000,0.0000,
829,756.03,13226.91,-13226.91,1457.0000,65535.0000,5916.8000,4459.8000,0.0000,0.0000,0.0000,
830,756.44,13219.84,-13219.84,1464.0000,65535.0000,5948.0000,4484.0000,0.0000,0.0000,0.0000,
831,756.84,13212.78,-13212.78,1459.0000,65535.0000,5947.4000,4488.4000,0.0000,0.0000,0.0000,
832,757.25,13205.73,-13205.73,1456.6000,65535.0000,5973.6000,4517.0000,0.0000,0.0000,0.0000,
833,757.65,13198.69,-13198.69,1456.8000,65535.0000,5958.2000,4501.4000,0.0000,0.0000,0.0000,
834,758.05,13191.67,-13191.67,1463.0000,65535.0000,5902.6000,4439.6000,0.0000,0.0000,0.0000,
835,758.46,13184.65,-13184.65,1458.2000,65535.0000,5923.2000,4465.0000,0.0000,0.0000,0.0000,
836,758.86,13177.65,-13177.65,1461.4000,65535.0000,5896.4000,4435.0000,0.0000,0.0000,0.0000,
837,759.26,13170.66,-13170.66,1417.6000,65535.0000,5845.2000,4427.6000,0.0000,0.0000,0.0000,
838,759.67,13163.67,-13163.67,1485.8000,65535.0000,5846.8000,4361.0000,0.0000,0.0000,0.0000,
839,760.07,13156.70,-13156.70,1444.4000,65535.0000,5803.8000,4359.4000,0.0000,0.0000,0.0000,
840,760.47,13149.74,-13149.74,1464.6000,65535.0000,5763.0000,4298.4000,0.0000,0.0000,0.0000,
841,760.87,13142.80,-13142.80,1437.4000,65535.0000,5754.2000,4316.8000,0.0000,0.0000,0.0000,
842,761.28,13135.86,-13135.86,1464.6000,65535.0000,5810.4000,4345.8000,0.0000,0.0000,0.0000,
843,761.68,13128.93,-13128.93,1454.6000,65535.0000,5808.0000,4353.4000,0.0000,0.0000,0.0000,
844,762.08,13122.02,-13122.02,1428.8000,65535.0000,5798.0000,4369.2000,0.0000,0.0000,0.0000,
845,762.48,13115.11,-13115.11,1449.2000,65535.0000,5804.4000,4355.2000,0.0000,0.0000,0.0000,
846,762.88,13108.22,-13108.22,1435.8000,65535.0000,5729.6000,4293.8000,0.0000,0.0000,0.0000,
847,763.28,13101.33,-13101.33,1458.8000,65535.0000,5789.0000,4330.2000,0.0000,0.0000,0.0000,
848,763.68,13094.46,-13094.46,1437.0000,65535.0000,5756.2000,4319.2000,0.0000,0.0000,0.0000,
849,764.08,13087.60,-13087.60,1449.6000,65535.0000,5729.6000,4280.0000,0.0000,0.0000,0.0000,
850,764.48,13080.75,-13080.75,1474.2000,65535.0000,5756.0000,4281.8000,0.0000,0.0000,0.0000,
851,764.88,13073.91,-13073.91,1453.8000,65535.0000,5694.2000,4240.4000,0.0000,0.0000,0.0000,
852,765.28,13067.08,-13067.08,1454.2000,65535.0000,5775.6000,4321.4000,0.0000,0.0000,0.0000,
853,765.68,13060.26,-13060.26,1446.4000,65535.0000,5750.4000,4304.0000,0.0000,0.0000,0.0000,
854,766.08,13053.45,-13053.45,1441.2000,65535.0000,5677.0000,4235.8000,0.0000,0.0000,0.0000,
855,766.48,13046.66,-13046.66,1433.6000,65535.0000,5667.6000,4234.0000,0.0000,0.0000,0.0000,
856,766.88,13039.87,-13039.87,1449.6000,65535.0000,5672.8000,4223.2000,0.0000,0.0000,0.0000,
857,767.28,13033.10,-13033.10,1450.4000,65535.0000,5623.0000,4172.6000,0.0000,0.0000,0.0000,
858,767.68,13026.33,-13026.33,1445.8000,65535.0000,5650.2000,4204.4000,0.0000,0.0000,0.0000,
859,768.07,13019.58,-13019.58,1460.4000,65535.0000,5630.0000,4169.6000,0.0000,0.0000,0.0000,
860,768.47,13012.83,-13012.83,1462.4000,65535.0000,5594.8000,4132.4000,0.0000,0.0000,0.0000,
861,768.87,13006.10,-13006.10,1461.6000,65535.0000,5676.2000,4214.6000,0.0000,0.0000,0.0000,
862,769.27,12999.38,-12999.38,1445.0000,65535.0000,5622.0000,4177.0000,0.0000,0.0000,0.0000,
863,769.66,12992.67,-12992.67,1470.8000,65535.0000,5647.6000,4176.8000,0.0000,0.0000,0.0000,
864,770.06,12985.96,-12985.96,1457.8000,65535.0000,5561.6000,4103.8000,0.0000,0.0000,0.0000,
865,770.46,12979.27,-12979.27,1446.2000,65535.0000,5569.0000,4122.8000,0.0000,0.0000,0.0000,
866,770.86,12972.59,-12972.59,1462.6000,65535.0000,5527.4000,4064.8000,0.0000,0.0000,0.0000,
867,771.25,12965.92,-12965.92,1462.2000,65535.0000,5550.0000,4087.8000,0.0000,0.0000,0.0000,
868,771.65,12959.26,-12959.26,1467.2000,65535.0000,5578.0000,4110.8000,0.0000,0.0000,0.0000,
869,772.04,12952.61,-12952.61,1432.0000,65535.0000,5525.2000,4093.2000,0.0000,0.0000,0.0000,
870,772.44,12945.98,-12945.98,1448.4000,65535.0000,5514.6000,4066.2000,0.0000,0.0000,0.0000,
871,772.84,12939.35,-12939.35,1468.4000,65535.0000,5526.6000,4058.2000,0.0000,0.0000,0.0000,
872,773.23,12932.73,-12932.73,1470.4000,65535.0000,5489.4000,4019.0000,0.0000,0.0000,0.0000,
873,773.63,12926.12,-12926.12,1428.8000,65535.0000,5444.6000,4015.8000,0.0000,0.0000,0.0000,
874,774.02,12919.52,-12919.52,1443.8000,65535.0000,5442.4000,3998.6000,0.0000,0.0000,0.0000,
875,774.42,12912.94,-12912.94,1456.6000,65535.0000,5429.0000,3972.4000,0.0000,0.0000,0.0000,
876,774.81,12906.36,-12906.36,1464.8000,65535.0000,5416.8000,3952.0000,0.0000,0.0000,0.0000,
877,775.21,12899.79,-12899.79,1479.4000,65535.0000,5392.6000,3913.2000,0.0000,0.0000,0.0000,
878,775.60,12893.24,-12893.24,1466.6000,65535.0000,5439.6000,3973.0000,0.0000,0.0000,0.0000,
879,775.99,12886.69,-12886.69,1433.2000,65535.0000,5423.4000,3990.2000,0.0000,0.0000,0.0000,
880,776.39,12880.15,-12880.15,1451.2000,65535.0000,5350.8000,3899.6000,0.0000,0.0000,0.0000,
881,776.78,12873.63,-12873.63,1439.6000,65535.0000,5338.6000,3899.0000,0.0000,0.0000,0.0000,
882,777.18,12867.11,-12867.11,1412.6000,65535.0000,5413.2000,4000.6000,0.0000,0.0000,0.0000,
883,777.57,12860.61,-12860.61,1436.8000,65535.0000,5419.8000,3983.0000,0.0000,0.0000,0.0000,
884,777.96,12854.11,-12854.11,1445.4000,65535.0000,5411.4000,3966.0000,0.0000,0.0000,0.0000,
885,778.35,12847.62,-12847.62,1468.0000,65535.0000,5332.4000,3864.4000,0.0000,0.0000,0.0000,
886,778.75,12841.15,-12841.15,1467.8000,65535.0000,5369.0000,3901.2000,0.0000,0.0000,0.0000,
887,779.14,12834.68,-12834.68,1456.8000,65535.0000,5377.2000,3920.4000,0.0000,0.0000,0.0000,
888,779.53,12828.23,-12828.23,1452.8000,65535.0000,5401.0000,3948.2000,0.0000,0.0000,0.0000,
889,779.92,12821.78,-12821.78,1442.6000,65535.0000,5356.4000,3913.8000,0.0000,0.0000,0.0000,
890,780.31,12815.35,-12815.35,1452.0000,65535.0000,5311.8000,3859.8000,0.0000,0.0000,0.0000,
891,780.71,12808.92,-12808.92,1466.6000,65535.0000,5326.8000,3860.2000,0.0000,0.0000,0.0000,
892,781.10,12802.50,-12802.50,1464.8000,65535.0000,5303.2000,3838.4000,0.0000,0.0000,0.0000,
893,781.49,12796.10,-12796.10,1458.0000,65535.0000,5338.2000,3880.2000,0.0000,0.0000,0.0000,
894,781.88,12789.70,-12789.70,1453.2000,65535.0000,5279.8000,3826.6000,0.0000,0.0000,0.0000,
895,782.27,12783.32,-12783.32,1451.0000,65535.0000,5315.8000,3864.8000,0.0000,0.0000,0.0000,
896,782.66,12776.94,-12776.94,1458.4000,65535.0000,5309.6000,3851.2000,0.0000,0.0000,0.0000,
897,783.05,12770.57,-12770.57,1436.8000,65535.0000,5274.8000,3838.0000,0.0000,0.0000,0.0000,
898,783.44,12764.22,-12764.22,1463.6000,65535.0000,5231.2000,3767.6000,0.0000,0.0000,0.0000,
899,783.83,12757.87,-12757.87,1464.6000,65535.0000,5267.2000,3802.6000,0.0000,0.0000,0.0000,
900,784.22,12751.53,-12751.53,1462.4000,65535.0000,5269.0000,3806.6000,0.0000,0.0000,0.0000,
901,784.61,12745.20,-12745.20,1441.8000,65535.0000,5254.2000,3812.4000,0.0000,0.0000,0.0000,
902,785.00,12738.89,-12738.89,1443.2000,65535.0000,5235.8000,3792.6000,0.0000,0.0000,0.0000,
903,785.39,12732.58,-12732.58,1453.0000,65535.0000,5224.6000,3771.6000,0.0000,0.0000,0.0000,
904,785.78,12726.28,-12726.28,1457.6000,65535.0000,5238.0000,3780.4000,0.0000,0.0000,0.0000,
905,786.16,12719.99,-12719.99,1444.4000,65535.0000,5282.6000,3838.2000,0.0000,0.0000,0.0000,
906,786.55,12713.71,-12713.71,1453.2000,65535.0000,5272.6000,3819.4000,0.0000,0.0000,0.0000,
907,786.94,12707.44,-12707.44,1434.8000,65535.0000,5263.0000,3828.2000,0.0000,0.0000,0.0000,
908,787.33,12701.18,-12701.18,1425.8000,65535.0000,5232.0000,3806.2000,0.0000,0.0000,0.0000,
909,787.72,12694.93,-12694.93,1427.8000,65535.0000,5271.2000,3843.4000,0.0000,0.0000,0.0000,
910,788.10,12688.69,-12688.69,1436.0000,65535.0000,5270.8000,3834.8000,0.0000,0.0000,0.0000,
911,788.49,12682.46,-12682.46,1433.0000,65535.0000,5217.6000,3784.6000,0.0000,0.0000,0.0000,
912,788.88,12676.24,-12676.24,1458.8000,65535.0000,5255.4000,3796.6000,0.0000,0.0000,0.0000,
913,789.26,12670.03,-12670.03,1444.6000,65535.0000,5282.2000,3837.6000,0.0000,0.0000,0.0000,
914,789.65,12663.83,-12663.83,1438.0000,65535.0000,5215.4000,3777.4000,0.0000,0.0000,0.0000,
915,790.04,12657.63,-12657.63,1452.2000,65535.0000,5197.4000,3745.2000,0.0000,0.0000,0.0000,
916,790.42,12651.45,-12651.45,1457.8000,65535.0000,5215.0000,3757.2000,0.0000,0.0000,0.0000,
917,790.81,12645.28,-12645.28,1431.8000,65535.0000,5199.4000,3767.6000,0.0000,0.0000,0.0000,
918,791.19,12639.11,-12639.11,1448.4000,65535.0000,5241.2000,3792.8000,0.0000,0.0000,0.0000,
919,791.58,12632.96,-12632.96,1437.6000,65535.0000,5245.8000,3808.2000,0.0000,0.0000,0.0000,
920,791.97,12626.81,-12626.81,1436.0000,65535.0000,5224.0000,3788.0000,0.0000,0.0000,0.0000,
921,792.35,12620.67,-12620.67,1442.4000,65535.0000,5216.4000,3774.0000,0.0000,0.0000,0.0000,
922,792.74,12614.55,-12614.55,1476.6000,65535.0000,5212.2000,3735.6000,0.0000,0.0000,0.0000,
923,793.12,12608.43,-12608.43,1447.8000,65535.0000,5182.2000,3734.4000,0.0000,0.0000,0.0000,
924,793.50,12602.32,-12602.32,1437.8000,65535.0000,5160.8000,3723.0000,0.0000,0.0000,0.0000,
925,793.89,12596.22,-12596.22,1457.2000,65535.0000,5189.4000,3732.2000,0.0000,0.0000,0.0000,
926,794.27,12590.13,-12590.13,1450.0000,65535.0000,5167.2000,3717.2000,0.0000,0.0000,0.0000,
927,794.66,12584.05,-12584.05,1450.2000,65535.0000,5133.0000,3682.8000,0.0000,0.0000,0.0000,
928,795.04,12577.98,-12577.98,1459.0000,65535.0000,5145.4000,3686.4000,0.0000,0.0000,0.0000,
929,795.42,12571.92,-12571.92,1451.2000,65535.0000,5127.2000,3676.0000,0.0000,0.0000,0.0000,
930,795.81,12565.86,-12565.86,1468.8000,65535.0000,5153.2000,3684.4000,0.0000,0.0000,0.0000,
931,796.19,12559.82,-12559.82,1473.6000,65535.0000,5136.2000,3662.6000,0.0000,0.0000,0.0000,
932,796.57,12553.78,-12553.78,1426.6000,65535.0000,5127.6000,3701.0000,0.0000,0.0000,0.0000,
933,796.96,12547.76,-12547.76,1446.8000,65535.0000,5144.2000,3697.4000,0.0000,0.0000,0.0000,
934,797.34,12541.74,-12541.74,1468.6000,65535.0000,5182.8000,3714.2000,0.0000,0.0000,0.0000,
935,797.72,12535.74,-12535.74,1456.4000,65535.0000,5121.8000,3665.4000,0.0000,0.0000,0.0000,
936,798.10,12529.74,-12529.74,1453.2000,65535.0000,5144.8000,3691.6000,0.0000,0.0000,0.0000,
937,798.48,12523.75,-12523.75,1453.2000,65535.0000,5161.0000,3707.8000,0.0000,0.0000,0.0000,
938,798.86,12517.77,-12517.77,1457.0000,65535.0000,5129.2000,3672.2000,0.0000,0.0000,0.0000,
939,799.25,12511.80,-12511.80,1441.0000,65535.0000,5102.4000,3661.4000,0.0000,0.0000,0.0000,
940,799.63,12505.83,-12505.83,1421.8000,65535.0000,5080.4000,3658.6000,0.0000,0.0000,0.0000,
941,800.01,12499.88,-12499.88,1450.0000,65535.0000,5125.0000,3675.0000,0.0000,0.0000,0.0000,
942,800.39,12493.94,-12493.94,1451.6000,65535.0000,5105.8000,3654.2000,0.0000,0.0000,0.0000,
943,800.77,12488.00,-12488.00,1445.4000,65535.0000,5086.4000,3641.0000,0.0000,0.0000,0.0000,
944,801.15,12482.08,-12482.08,1457.2000,65535.0000,5103.6000,3646.4000,0.0000,0.0000,0.0000,
945,801.53,12476.16,-12476.16,1458.4000,65535.0000,5098.8000,3640.4000,0.0000,0.0000,0.0000,
946,801.91,12470.25,-12470.25,1462.2000,65535.0000,5075.8000,3613.6000,0.0000,0.0000,0.0000,
947,802.29,12464.35,-12464.35,1459.4000,65535.0000,5100.4000,3641.0000,0.0000,0.0000,0.0000,
948,802.67,12458.46,-12458.46,1443.4000,65535.0000,5083.2000,3639.8000,0.0000,0.0000,0.0000,
949,803.05,12452.58,-12452.58,1471.4000,65535.0000,5167.4000,3696.0000,0.0000,0.0000,0.0000,
950,803.43,12446.71,-12446.71,1474.4000,65535.0000,5129.2000,3654.8000,0.0000,0.0000,0.0000,
951,803.80,12440.84,-12440.84,1471.4000,65535.0000,5141.6000,3670.2000,0.0000,0.0000,0.0000,
952,804.18,12434.99,-12434.99,1449.0000,65535.0000,5181.6000,3732.6000,0.0000,0.0000,0.0000,
953,804.56,12429.14,-12429.14,1450.8000,65535.0000,5162.2000,3711.4000,0.0000,0.0000,0.0000,
954,804.94,12423.30,-12423.30,1462.2000,65535.0000,5147.8000,3685.6000,0.0000,0.0000,0.0000,
955,805.32,12417.48,-12417.48,1465.4000,65535.0000,5132.2000,3666.8000,0.0000,0.0000,0.0000,
956,805.69,12411.66,-12411.66,1464.8000,65535.0000,5134.2000,3669.4000,0.0000,0.0000,0.0000,
957,806.07,12405.84,-12405.84,1432.4000,65535.0000,5124.6000,3692.2000,0.0000,0.0000,0.0000,
958,806.45,12400.04,-12400.04,1438.0000,65535.0000,5106.8000,3668.8000,0.0000,0.0000,0.0000,
959,806.83,12394.25,-12394.25,1463.4000,65535.0000,5097.2000,3633.8000,0.0000,0.0000,0.0000,
960,807.20,12388.46,-12388.46,1426.6000,65535.0000,5101.4000,3674.8000,0.0000,0.0000,0.0000,
961,807.58,12382.69,-12382.69,1458.0000,65535.0000,5081.0000,3623.0000,0.0000,0.0000,0.0000,
962,807.96,12376.92,-12376.92,1450.8000,65535.0000,5085.2000,3634.4000,0.0000,0.0000,0.0000,
963,808.33,12371.16,-12371.16,1456.8000,65535.0000,5064.8000,3608.0000,0.0000,0.0000,0.0000,
964,808.71,12365.41,-12365.41,1434.8000,65535.0000,5089.4000,3654.6000,0.0000,0.0000,0.0000,
965,809.08,12359.67,-12359.67,1448.2000,65535.0000,5083.0000,3634.8000,0.0000,0.0000,0.0000,
966,809.46,12353.93,-12353.93,1450.6000,65535.0000,5067.2000,3616.6000,0.0000,0.0000,0.0000,
967,809.83,12348.21,-12348.21,1444.4000,65535.0000,5067.4000,3623.0000,0.0000,0.0000,0.0000,
968,810.21,12342.49,-12342.49,1472.6000,65535.0000,5078.6000,3606.0000,0.0000,0.0000,0.0000,
969,810.58,12336.78,-12336.78,1444.2000,65535.0000,5089.6000,3645.4000,0.0000,0.0000,0.0000,
970,810.96,12331.08,-12331.08,1459.6000,65535.0000,5090.6000,3631.0000,0.0000,0.0000,0.0000,
971,811.33,12325.39,-12325.39,1445.6000,65535.0000,5034.0000,3588.4000,0.0000,0.0000,0.0000,
972,811.71,12319.71,-12319.71,1453.8000,65535.0000,5087.2000,3633.4000,0.0000,0.0000,0.0000,
973,812.08,12314.04,-12314.04,1454.2000,65535.0000,5078.2000,3624.0000,0.0000,0.0000,0.0000,
974,812.46,12308.37,-12308.37,1473.6000,65535.0000,5076.4000,3602.8000,0.0000,0.0000,0.0000,
975,812.83,12302.72,-12302.72,1446.2000,65535.0000,5093.0000,3646.8000,0.0000,0.0000,0.0000,
976,813.20,12297.07,-12297.07,1454.8000,65535.0000,5110.2000,3655.4000,0.0000,0.0000,0.0000,
977,813.58,12291.43,-12291.43,1455.8000,65535.0000,5130.8000,3675.0000,0.0000,0.0000,0.0000,
978,813.95,12285.79,-12285.79,1458.6000,65535.0000,5145.8000,3687.2000,0.0000,0.0000,0.0000,
979,814.32,12280.17,-12280.17,1436.4000,65535.0000,5183.8000,3747.4000,0.0000,0.0000,0.0000,
980,814.69,12274.56,-12274.56,1448.8000,65535.0000,5142.8000,3694.0000,0.0000,0.0000,0.0000,
981,815.07,12268.95,-12268.95,1449.2000,65535.0000,5108.4000,3659.2000,0.0000,0.0000,0.0000,
982,815.44,12263.35,-12263.35,1443.4000,65535.0000,5127.8000,3684.4000,0.0000,0.0000,0.0000,
983,815.81,12257.76,-12257.76,1436.2000,65535.0000,5124.0000,3687.8000,0.0000,0.0000,0.0000,
984,816.18,12252.18,-12252.18,1443.6000,65535.0000,5106.0000,3662.4000,0.0000,0.0000,0.0000,
985,816.55,12246.61,-12246.61,1446.0000,65535.0000,5099.0000,3653.0000,0.0000,0.0000,0.0000,
986,816.92,12241.04,-12241.04,1418.4000,65535.0000,5071.2000,3652.8000,0.0000,0.0000,0.0000,
987,817.29,12235.48,-12235.48,1431.2000,65535.0000,5052.6000,3621.4000,0.0000,0.0000,0.0000,
988,817.67,12229.94,-12229.94,1434.6000,65535.0000,5125.6000,3691.0000,0.0000,0.0000,0.0000,
989,818.04,12224.40,-12224.40,1459.0000,65535.0000,5109.0000,3650.0000,0.0000,0.0000,0.0000,
990,818.41,12218.86,-12218.86,1428.8000,65535.0000,5097.2000,3668.4000,0.0000,0.0000,0.0000,
991,818.78,12213.34,-12213.34,1430.0000,65535.0000,5061.4000,3631.4000,0.0000,0.0000,0.0000,
992,819.15,12207.82,-12207.82,1444.8000,65535.0000,5102.2000,3657.4000,0.0000,0.0000,0.0000,
993,819.52,12202.32,-12202.32,1459.2000,65535.0000,5046.6000,3587.4000,0.0000,0.0000,0.0000,
994,819.89,12196.82,-12196.82,1442.6000,65535.0000,5008.4000,3565.8000,0.0000,0.0000,0.0000,
995,820.26,12191.32,-12191.32,1429.2000,65535.0000,5072.4000,3643.2000,0.0000,0.0000,0.0000,
996,820.62,12185.84,-12185.84,1417.0000,65535.0000,5075.4000,3658.4000,0.0000,0.0000,0.0000,
997,820.99,12180.37,-12180.37,1435.0000,65535.0000,5087.6000,3652.6000,0.0000,0.0000,0.0000,
998,821.36,12174.90,-12174.90,1435.8000,65535.0000,5113.6000,3677.8000,0.0000,0.0000,0.0000,
999,821.73,12169.44,-12169.44,1444.4000,65535.0000,5103.2000,3658.8000,0.0000,0.0000,0.0000,
