File Version;BWSpec4.03_33_C
Date,2026-04-16 14:26:59
title,ZMYE
model,BRC1K
c code,ZMYE
operator,
port1,0
baud1,3
pixel_start,0
pixel_end,999
step,1
units,1
bkcolor,16777215
show_mode,3
data_mode,0
pixel_mode,0
intigration times(ms),10
average number,5
time_multiply,1
spectrometer_type ,71
yaxis,1
yaxis_min,-494
yaxis_max,65535
xaxis,0
xaxis_min,0
xaxis_max,999
irrands_DispWLMin,100
irrands_DispWLMax,1000
yaxis_min_6,0
yaxis_max_6,0
irradiance_unit,0
Color_Data_Flag,0
Color_StartWL,400
Color_EndWL,700
Color_IncWL,10
power_unit_index,3
photometric_index,0
Illuminant_index,3
observer_index,0
lab_l,0
lab_a,0
lab_b,0
radiometric_flag,0
coefs_a0,348.690626413622
coefs_a1,0.577242842360403
coefs_a2,-0.000102397725884922
coefs_a3,-1.43696470178894E-09
coefs_b0,-604.699216452593
coefs_b1,1.81821494738794
coefs_b2,-0.000542372268672448
coefs_b3,8.54199818797248E-07
coefs_r0,1
coefs_r1,0
coefs_r2,0
coefs_r3,0
coefs_j0,1
coefs_j1,0
coefs_j2,0
coefs_j3,0
enable_coefs_r,0
all_data_save,1
select_option,-1
interval_time,10
pixel_num,1000
sel_pixel_start,0
sel_pixel_end,968
sel_pixel_delta,1
dark_compensate,0
dark_compensate_value_1,0
dark_compensate_value_2,0
dark_compensate_value_3,0
monitor pixel_0,0
monitor pixel_1,0
monitor pixel_2,0
monitor pixel_3,0
monitor pixel_4,0
monitor pixel_5,0
vertical_select_flag,0
vertical_line3,0
vertical_line4,0
vertical_line3_wv,1
vertical_line4_wv,1
vertical_line_flag,0
vertical_line_ratio,0
laser_wavelength,0
laser_powerlevel,0
overlay_js,0
Relative Intensity Correction Flag,0
Pixel,Wavelength,Wavenumber,Raman Shift,Dark,Reference,Raw data #1,Dark Subtracted #1,%TR #1,Absorbance #1,Irradiance (lumen) #1,
0,348.69,28678.72,-28678.72,1460.0000,65535.0000,1448.8000,-11.2000,0.0000,0.0000,0.0000,
1,349.27,28631.33,-28631.33,1477.6000,65535.0000,1456.2000,-21.4000,0.0000,0.0000,0.0000,
2,349.84,28584.11,-28584.11,1470.6000,65535.0000,1462.8000,-7.8000,0.0000,0.0000,0.0000,
3,350.42,28537.07,-28537.07,1468.0000,65535.0000,1442.4000,-25.6000,0.0000,0.0000,0.0000,
4,351.00,28490.19,-28490.19,1459.6000,65535.0000,1476.0000,16.4000,0.0000,0.0000,0.0000,
5,351.57,28443.49,-28443.49,1450.4000,65535.0000,1472.0000,21.6000,0.0000,0.0000,0.0000,
6,352.15,28396.96,-28396.96,1461.4000,65535.0000,1470.6000,9.2000,0.0000,0.0000,0.0000,
7,352.73,28350.59,-28350.59,1463.0000,65535.0000,1496.0000,33.0000,0.0000,0.0000,0.0000,
8,353.30,28304.40,-28304.40,1457.8000,65535.0000,1484.6000,26.8000,0.0000,0.0000,0.0000,
9,353.88,28258.36,-28258.36,1457.8000,65535.0000,1482.6000,24.8000,0.0000,0.0000,0.0000,
10,354.45,28212.50,-28212.50,1465.8000,65535.0000,1483.0000,17.2000,0.0000,0.0000,0.0000,
11,355.03,28166.80,-28166.80,1468.0000,65535.0000,1473.4000,5.4000,0.0000,0.0000,0.0000,
12,355.60,28121.26,-28121.26,1449.4000,65535.0000,1502.6000,53.2000,0.0000,0.0000,0.0000,
13,356.18,28075.89,-28075.89,1464.8000,65535.0000,1457.2000,-7.6000,0.0000,0.0000,0.0000,
14,356.75,28030.68,-28030.68,1466.4000,65535.0000,1461.2000,-5.2000,0.0000,0.0000,0.0000,
15,357.33,27985.63,-27985.63,1454.8000,65535.0000,1500.8000,46.0000,0.0000,0.0000,0.0000,
16,357.90,27940.74,-27940.74,1466.0000,65535.0000,1462.0000,-4.0000,0.0000,0.0000,0.0000,
17,358.47,27896.01,-27896.01,1487.8000,65535.0000,1482.2000,-5.6000,0.0000,0.0000,0.0000,
18,359.05,27851.44,-27851.44,1493.4000,65535.0000,1497.6000,4.2000,0.0000,0.0000,0.0000,
19,359.62,27807.03,-27807.03,1459.4000,65535.0000,1457.4000,-2.0000,0.0000,0.0000,0.0000,
20,360.19,27762.78,-27762.78,1451.2000,65535.0000,1487.4000,36.2000,0.0000,0.0000,0.0000,
21,360.77,27718.68,-27718.68,1458.0000,65535.0000,1465.8000,7.8000,0.0000,0.0000,0.0000,
22,361.34,27674.74,-27674.74,1478.8000,65535.0000,1487.6000,8.8000,0.0000,0.0000,0.0000,
23,361.91,27630.95,-27630.95,1449.8000,65535.0000,1471.6000,21.8000,0.0000,0.0000,0.0000,
24,362.49,27587.31,-27587.31,1448.2000,65535.0000,1498.0000,49.8000,0.0000,0.0000,0.0000,
25,363.06,27543.83,-27543.83,1465.0000,65535.0000,1490.6000,25.6000,0.0000,0.0000,0.0000,
26,363.63,27500.50,-27500.50,1470.2000,65535.0000,1488.4000,18.2000,0.0000,0.0000,0.0000,
27,364.20,27457.33,-27457.33,1462.6000,65535.0000,1477.4000,14.8000,0.0000,0.0000,0.0000,
28,364.77,27414.30,-27414.30,1466.6000,65535.0000,1470.0000,3.4000,0.0000,0.0000,0.0000,
29,365.34,27371.42,-27371.42,1486.2000,65535.0000,1474.4000,-11.8000,0.0000,0.0000,0.0000,
30,365.92,27328.70,-27328.70,1464.2000,65535.0000,1473.2000,9.0000,0.0000,0.0000,0.0000,
31,366.49,27286.12,-27286.12,1446.0000,65535.0000,1471.4000,25.4000,0.0000,0.0000,0.0000,
32,367.06,27243.69,-27243.69,1465.6000,65535.0000,1491.0000,25.4000,0.0000,0.0000,0.0000,
33,367.63,27201.40,-27201.40,1454.4000,65535.0000,1492.8000,38.4000,0.0000,0.0000,0.0000,
34,368.20,27159.27,-27159.27,1449.8000,65535.0000,1494.8000,45.0000,0.0000,0.0000,0.0000,
35,368.77,27117.27,-27117.27,1491.0000,65535.0000,1512.6000,21.6000,0.0000,0.0000,0.0000,
36,369.34,27075.43,-27075.43,1483.2000,65535.0000,1488.6000,5.4000,0.0000,0.0000,0.0000,
37,369.91,27033.72,-27033.72,1459.4000,65535.0000,1482.0000,22.6000,0.0000,0.0000,0.0000,
38,370.48,26992.16,-26992.16,1451.6000,65535.0000,1485.8000,34.2000,0.0000,0.0000,0.0000,
39,371.05,26950.74,-26950.74,1463.0000,65535.0000,1491.4000,28.4000,0.0000,0.0000,0.0000,
40,371.62,26909.47,-26909.47,1456.0000,65535.0000,1496.6000,40.6000,0.0000,0.0000,0.0000,
41,372.19,26868.33,-26868.33,1473.8000,65535.0000,1465.4000,-8.4000,0.0000,0.0000,0.0000,
42,372.75,26827.34,-26827.34,1455.4000,65535.0000,1475.0000,19.6000,0.0000,0.0000,0.0000,
43,373.32,26786.48,-26786.48,1488.0000,65535.0000,1489.4000,1.4000,0.0000,0.0000,0.0000,
44,373.89,26745.77,-26745.77,1459.0000,65535.0000,1497.0000,38.0000,0.0000,0.0000,0.0000,
45,374.46,26705.19,-26705.19,1444.8000,65535.0000,1494.8000,50.0000,0.0000,0.0000,0.0000,
46,375.03,26664.75,-26664.75,1445.0000,65535.0000,1480.8000,35.8000,0.0000,0.0000,0.0000,
47,375.59,26624.44,-26624.44,1450.8000,65535.0000,1503.6000,52.8000,0.0000,0.0000,0.0000,
48,376.16,26584.28,-26584.28,1470.6000,65535.0000,1485.2000,14.6000,0.0000,0.0000,0.0000,
49,376.73,26544.24,-26544.24,1466.0000,65535.0000,1468.2000,2.2000,0.0000,0.0000,0.0000,
50,377.30,26504.35,-26504.35,1471.8000,65535.0000,1485.0000,13.2000,0.0000,0.0000,0.0000,
51,377.86,26464.58,-26464.58,1452.4000,65535.0000,1477.4000,25.0000,0.0000,0.0000,0.0000,
52,378.43,26424.95,-26424.95,1451.2000,65535.0000,1472.0000,20.8000,0.0000,0.0000,0.0000,
53,379.00,26385.46,-26385.46,1480.8000,65535.0000,1462.0000,-18.8000,0.0000,0.0000,0.0000,
54,379.56,26346.09,-26346.09,1464.6000,65535.0000,1482.8000,18.2000,0.0000,0.0000,0.0000,
55,380.13,26306.86,-26306.86,1472.2000,65535.0000,1472.0000,-0.2000,0.0000,0.0000,0.0000,
56,380.69,26267.76,-26267.76,1460.2000,65535.0000,1503.8000,43.6000,0.0000,0.0000,0.0000,
57,381.26,26228.78,-26228.78,1457.8000,65535.0000,1498.6000,40.8000,0.0000,0.0000,0.0000,
58,381.83,26189.94,-26189.94,1460.6000,65535.0000,1487.6000,27.0000,0.0000,0.0000,0.0000,
59,382.39,26151.23,-26151.23,1456.6000,65535.0000,1456.8000,0.2000,0.0000,0.0000,0.0000,
60,382.96,26112.64,-26112.64,1446.8000,65535.0000,1485.6000,38.8000,0.0000,0.0000,0.0000,
61,383.52,26074.19,-26074.19,1465.2000,65535.0000,1490.8000,25.6000,0.0000,0.0000,0.0000,
62,384.09,26035.85,-26035.85,1475.8000,65535.0000,1484.0000,8.2000,0.0000,0.0000,0.0000,
63,384.65,25997.65,-25997.65,1471.4000,65535.0000,1488.8000,17.4000,0.0000,0.0000,0.0000,
64,385.21,25959.57,-25959.57,1445.0000,65535.0000,1487.8000,42.8000,0.0000,0.0000,0.0000,
65,385.78,25921.62,-25921.62,1456.0000,65535.0000,1489.2000,33.2000,0.0000,0.0000,0.0000,
66,386.34,25883.79,-25883.79,1447.0000,65535.0000,1461.2000,14.2000,0.0000,0.0000,0.0000,
67,386.91,25846.08,-25846.08,1451.6000,65535.0000,1493.4000,41.8000,0.0000,0.0000,0.0000,
68,387.47,25808.50,-25808.50,1451.6000,65535.0000,1500.2000,48.6000,0.0000,0.0000,0.0000,
69,388.03,25771.04,-25771.04,1472.2000,65535.0000,1492.0000,19.8000,0.0000,0.0000,0.0000,
70,388.60,25733.71,-25733.71,1452.0000,65535.0000,1474.2000,22.2000,0.0000,0.0000,0.0000,
71,389.16,25696.49,-25696.49,1452.2000,65535.0000,1511.4000,59.2000,0.0000,0.0000,0.0000,
72,389.72,25659.40,-25659.40,1481.4000,65535.0000,1484.6000,3.2000,0.0000,0.0000,0.0000,
73,390.28,25622.43,-25622.43,1473.8000,65535.0000,1513.8000,40.0000,0.0000,0.0000,0.0000,
74,390.85,25585.57,-25585.57,1479.4000,65535.0000,1507.6000,28.2000,0.0000,0.0000,0.0000,
75,391.41,25548.84,-25548.84,1455.4000,65535.0000,1510.6000,55.2000,0.0000,0.0000,0.0000,
76,391.97,25512.22,-25512.22,1482.4000,65535.0000,1494.2000,11.8000,0.0000,0.0000,0.0000,
77,392.53,25475.72,-25475.72,1459.2000,65535.0000,1509.0000,49.8000,0.0000,0.0000,0.0000,
78,393.09,25439.34,-25439.34,1459.0000,65535.0000,1500.6000,41.6000,0.0000,0.0000,0.0000,
79,393.65,25403.08,-25403.08,1460.2000,65535.0000,1505.8000,45.6000,0.0000,0.0000,0.0000,
80,394.21,25366.93,-25366.93,1448.2000,65535.0000,1491.4000,43.2000,0.0000,0.0000,0.0000,
81,394.77,25330.90,-25330.90,1454.0000,65535.0000,1482.0000,28.0000,0.0000,0.0000,0.0000,
82,395.34,25294.99,-25294.99,1466.4000,65535.0000,1492.2000,25.8000,0.0000,0.0000,0.0000,
83,395.90,25259.19,-25259.19,1447.8000,65535.0000,1503.4000,55.6000,0.0000,0.0000,0.0000,
84,396.46,25223.50,-25223.50,1465.2000,65535.0000,1513.0000,47.8000,0.0000,0.0000,0.0000,
85,397.02,25187.93,-25187.93,1452.2000,65535.0000,1463.4000,11.2000,0.0000,0.0000,0.0000,
86,397.58,25152.47,-25152.47,1486.4000,65535.0000,1491.2000,4.8000,0.0000,0.0000,0.0000,
87,398.13,25117.12,-25117.12,1470.4000,65535.0000,1493.6000,23.2000,0.0000,0.0000,0.0000,
88,398.69,25081.89,-25081.89,1471.0000,65535.0000,1491.2000,20.2000,0.0000,0.0000,0.0000,
89,399.25,25046.77,-25046.77,1459.0000,65535.0000,1508.4000,49.4000,0.0000,0.0000,0.0000,
90,399.81,25011.75,-25011.75,1469.0000,65535.0000,1499.2000,30.2000,0.0000,0.0000,0.0000,
91,400.37,24976.85,-24976.85,1499.0000,65535.0000,1483.2000,-15.8000,0.0000,0.0000,0.0000,
92,400.93,24942.06,-24942.06,1473.6000,65535.0000,1506.2000,32.6000,0.0000,0.0000,0.0000,
93,401.49,24907.38,-24907.38,1489.4000,65535.0000,1530.4000,41.0000,0.0000,0.0000,0.0000,
94,402.05,24872.81,-24872.81,1475.8000,65535.0000,1487.8000,12.0000,0.0000,0.0000,0.0000,
95,402.60,24838.34,-24838.34,1459.8000,65535.0000,1505.4000,45.6000,0.0000,0.0000,0.0000,
96,403.16,24803.99,-24803.99,1442.8000,65535.0000,1507.2000,64.4000,0.0000,0.0000,0.0000,
97,403.72,24769.74,-24769.74,1480.6000,65535.0000,1523.0000,42.4000,0.0000,0.0000,0.0000,
98,404.28,24735.60,-24735.60,1463.2000,65535.0000,1502.8000,39.6000,0.0000,0.0000,0.0000,
99,404.83,24701.56,-24701.56,1463.2000,65535.0000,1519.2000,56.0000,0.0000,0.0000,0.0000,
100,405.39,24667.63,-24667.63,1454.6000,65535.0000,1505.8000,51.2000,0.0000,0.0000,0.0000,
101,405.95,24633.81,-24633.81,1461.0000,65535.0000,1504.4000,43.4000,0.0000,0.0000,0.0000,
102,406.50,24600.09,-24600.09,1470.2000,65535.0000,1504.4000,34.2000,0.0000,0.0000,0.0000,
103,407.06,24566.48,-24566.48,1471.8000,65535.0000,1523.8000,52.0000,0.0000,0.0000,0.0000,
104,407.61,24532.97,-24532.97,1452.0000,65535.0000,1520.6000,68.6000,0.0000,0.0000,0.0000,
105,408.17,24499.56,-24499.56,1466.2000,65535.0000,1519.0000,52.8000,0.0000,0.0000,0.0000,
106,408.73,24466.26,-24466.26,1449.4000,65535.0000,1535.6000,86.2000,0.0000,0.0000,0.0000,
107,409.28,24433.06,-24433.06,1462.6000,65535.0000,1519.8000,57.2000,0.0000,0.0000,0.0000,
108,409.84,24399.96,-24399.96,1481.0000,65535.0000,1517.8000,36.8000,0.0000,0.0000,0.0000,
109,410.39,24366.97,-24366.97,1474.2000,65535.0000,1505.4000,31.2000,0.0000,0.0000,0.0000,
110,410.95,24334.07,-24334.07,1459.4000,65535.0000,1526.6000,67.2000,0.0000,0.0000,0.0000,
111,411.50,24301.28,-24301.28,1443.2000,65535.0000,1518.2000,75.0000,0.0000,0.0000,0.0000,
112,412.06,24268.59,-24268.59,1468.0000,65535.0000,1531.4000,63.4000,0.0000,0.0000,0.0000,
113,412.61,24235.99,-24235.99,1466.4000,65535.0000,1520.8000,54.4000,0.0000,0.0000,0.0000,
114,413.16,24203.50,-24203.50,1459.8000,65535.0000,1536.6000,76.8000,0.0000,0.0000,0.0000,
115,413.72,24171.10,-24171.10,1470.8000,65535.0000,1509.0000,38.2000,0.0000,0.0000,0.0000,
116,414.27,24138.81,-24138.81,1446.0000,65535.0000,1527.8000,81.8000,0.0000,0.0000,0.0000,
117,414.82,24106.61,-24106.61,1476.2000,65535.0000,1550.8000,74.6000,0.0000,0.0000,0.0000,
118,415.38,24074.51,-24074.51,1466.0000,65535.0000,1530.4000,64.4000,0.0000,0.0000,0.0000,
119,415.93,24042.50,-24042.50,1441.6000,65535.0000,1535.2000,93.6000,0.0000,0.0000,0.0000,
120,416.48,24010.60,-24010.60,1463.0000,65535.0000,1521.2000,58.2000,0.0000,0.0000,0.0000,
121,417.04,23978.79,-23978.79,1499.4000,65535.0000,1524.0000,24.6000,0.0000,0.0000,0.0000,
122,417.59,23947.07,-23947.07,1447.4000,65535.0000,1542.8000,95.4000,0.0000,0.0000,0.0000,
123,418.14,23915.46,-23915.46,1465.4000,65535.0000,1542.2000,76.8000,0.0000,0.0000,0.0000,
124,418.69,23883.93,-23883.93,1474.6000,65535.0000,1523.4000,48.8000,0.0000,0.0000,0.0000,
125,419.24,23852.50,-23852.50,1455.0000,65535.0000,1528.8000,73.8000,0.0000,0.0000,0.0000,
126,419.79,23821.17,-23821.17,1436.4000,65535.0000,1537.4000,101.0000,0.0000,0.0000,0.0000,
127,420.35,23789.93,-23789.93,1446.8000,65535.0000,1522.0000,75.2000,0.0000,0.0000,0.0000,
128,420.90,23758.78,-23758.78,1453.0000,65535.0000,1536.0000,83.0000,0.0000,0.0000,0.0000,
129,421.45,23727.73,-23727.73,1459.2000,65535.0000,1532.4000,73.2000,0.0000,0.0000,0.0000,
130,422.00,23696.77,-23696.77,1461.2000,65535.0000,1530.8000,69.6000,0.0000,0.0000,0.0000,
131,422.55,23665.90,-23665.90,1461.4000,65535.0000,1538.0000,76.6000,0.0000,0.0000,0.0000,
132,423.10,23635.12,-23635.12,1462.0000,65535.0000,1516.2000,54.2000,0.0000,0.0000,0.0000,
133,423.65,23604.43,-23604.43,1453.0000,65535.0000,1544.6000,91.6000,0.0000,0.0000,0.0000,
134,424.20,23573.84,-23573.84,1469.0000,65535.0000,1525.2000,56.2000,0.0000,0.0000,0.0000,
135,424.75,23543.33,-23543.33,1498.6000,65535.0000,1549.2000,50.6000,0.0000,0.0000,0.0000,
136,425.30,23512.92,-23512.92,1462.2000,65535.0000,1533.0000,70.8000,0.0000,0.0000,0.0000,
137,425.85,23482.60,-23482.60,1473.2000,65535.0000,1533.0000,59.8000,0.0000,0.0000,0.0000,
138,426.40,23452.36,-23452.36,1468.8000,65535.0000,1511.6000,42.8000,0.0000,0.0000,0.0000,
139,426.95,23422.22,-23422.22,1464.6000,65535.0000,1538.4000,73.8000,0.0000,0.0000,0.0000,
140,427.49,23392.16,-23392.16,1464.2000,65535.0000,1537.6000,73.4000,0.0000,0.0000,0.0000,
141,428.04,23362.19,-23362.19,1478.2000,65535.0000,1537.8000,59.6000,0.0000,0.0000,0.0000,
142,428.59,23332.31,-23332.31,1454.0000,65535.0000,1535.2000,81.2000,0.0000,0.0000,0.0000,
143,429.14,23302.52,-23302.52,1466.4000,65535.0000,1542.4000,76.0000,0.0000,0.0000,0.0000,
144,429.69,23272.81,-23272.81,1461.0000,65535.0000,1557.8000,96.8000,0.0000,0.0000,0.0000,
145,430.23,23243.19,-23243.19,1443.8000,65535.0000,1540.6000,96.8000,0.0000,0.0000,0.0000,
146,430.78,23213.66,-23213.66,1471.6000,65535.0000,1536.8000,65.2000,0.0000,0.0000,0.0000,
147,431.33,23184.21,-23184.21,1469.6000,65535.0000,1547.2000,77.6000,0.0000,0.0000,0.0000,
148,431.87,23154.85,-23154.85,1440.2000,65535.0000,1535.6000,95.4000,0.0000,0.0000,0.0000,
149,432.42,23125.57,-23125.57,1483.6000,65535.0000,1544.0000,60.4000,0.0000,0.0000,0.0000,
150,432.97,23096.38,-23096.38,1446.4000,65535.0000,1562.8000,116.4000,0.0000,0.0000,0.0000,
151,433.51,23067.28,-23067.28,1442.2000,65535.0000,1567.2000,125.0000,0.0000,0.0000,0.0000,
152,434.06,23038.25,-23038.25,1457.6000,65535.0000,1546.2000,88.6000,0.0000,0.0000,0.0000,
153,434.61,23009.31,-23009.31,1443.2000,65535.0000,1540.8000,97.6000,0.0000,0.0000,0.0000,
154,435.15,22980.46,-22980.46,1448.8000,65535.0000,1555.0000,106.2000,0.0000,0.0000,0.0000,
155,435.70,22951.69,-22951.69,1443.8000,65535.0000,1536.6000,92.8000,0.0000,0.0000,0.0000,
156,436.24,22923.00,-22923.00,1435.4000,65535.0000,1542.8000,107.4000,0.0000,0.0000,0.0000,
157,436.79,22894.39,-22894.39,1428.6000,65535.0000,1533.6000,105.0000,0.0000,0.0000,0.0000,
158,437.33,22865.87,-22865.87,1449.6000,65535.0000,1554.2000,104.6000,0.0000,0.0000,0.0000,
159,437.88,22837.42,-22837.42,1452.2000,65535.0000,1568.4000,116.2000,0.0000,0.0000,0.0000,
160,438.42,22809.06,-22809.06,1453.2000,65535.0000,1558.6000,105.4000,0.0000,0.0000,0.0000,
161,438.97,22780.78,-22780.78,1484.8000,65535.0000,1578.8000,94.0000,0.0000,0.0000,0.0000,
162,439.51,22752.58,-22752.58,1440.8000,65535.0000,1550.0000,109.2000,0.0000,0.0000,0.0000,
163,440.05,22724.46,-22724.46,1462.0000,65535.0000,1565.4000,103.4000,0.0000,0.0000,0.0000,
164,440.60,22696.42,-22696.42,1465.4000,65535.0000,1555.2000,89.8000,0.0000,0.0000,0.0000,
165,441.14,22668.47,-22668.47,1443.4000,65535.0000,1522.2000,78.8000,0.0000,0.0000,0.0000,
166,441.68,22640.59,-22640.59,1443.8000,65535.0000,1558.8000,115.0000,0.0000,0.0000,0.0000,
167,442.23,22612.78,-22612.78,1454.8000,65535.0000,1559.6000,104.8000,0.0000,0.0000,0.0000,
168,442.77,22585.06,-22585.06,1488.8000,65535.0000,1558.2000,69.4000,0.0000,0.0000,0.0000,
169,443.31,22557.42,-22557.42,1467.4000,65535.0000,1556.4000,89.0000,0.0000,0.0000,0.0000,
170,443.86,22529.85,-22529.85,1449.2000,65535.0000,1560.4000,111.2000,0.0000,0.0000,0.0000,
171,444.40,22502.36,-22502.36,1471.2000,65535.0000,1556.8000,85.6000,0.0000,0.0000,0.0000,
172,444.94,22474.95,-22474.95,1449.6000,65535.0000,1552.4000,102.8000,0.0000,0.0000,0.0000,
173,445.48,22447.62,-22447.62,1454.6000,65535.0000,1551.2000,96.6000,0.0000,0.0000,0.0000,
174,446.02,22420.36,-22420.36,1474.6000,65535.0000,1571.4000,96.8000,0.0000,0.0000,0.0000,
175,446.56,22393.18,-22393.18,1454.0000,65535.0000,1587.6000,133.6000,0.0000,0.0000,0.0000,
176,447.11,22366.08,-22366.08,1476.6000,65535.0000,1565.4000,88.8000,0.0000,0.0000,0.0000,
177,447.65,22339.05,-22339.05,1438.2000,65535.0000,1584.2000,146.0000,0.0000,0.0000,0.0000,
178,448.19,22312.10,-22312.10,1460.8000,65535.0000,1580.8000,120.0000,0.0000,0.0000,0.0000,
179,448.73,22285.22,-22285.22,1459.6000,65535.0000,1603.8000,144.2000,0.0000,0.0000,0.0000,
180,449.27,22258.42,-22258.42,1453.4000,65535.0000,1588.4000,135.0000,0.0000,0.0000,0.0000,
181,449.81,22231.69,-22231.69,1489.0000,65535.0000,1585.0000,96.0000,0.0000,0.0000,0.0000,
182,450.35,22205.03,-22205.03,1477.4000,65535.0000,1577.6000,100.2000,0.0000,0.0000,0.0000,
183,450.89,22178.45,-22178.45,1469.8000,65535.0000,1601.2000,131.4000,0.0000,0.0000,0.0000,
184,451.43,22151.95,-22151.95,1472.0000,65535.0000,1586.8000,114.8000,0.0000,0.0000,0.0000,
185,451.97,22125.51,-22125.51,1472.0000,65535.0000,1599.6000,127.6000,0.0000,0.0000,0.0000,
186,452.51,22099.15,-22099.15,1464.6000,65535.0000,1570.2000,105.6000,0.0000,0.0000,0.0000,
187,453.04,22072.87,-22072.87,1453.2000,65535.0000,1588.6000,135.4000,0.0000,0.0000,0.0000,
188,453.58,22046.65,-22046.65,1463.2000,65535.0000,1624.0000,160.8000,0.0000,0.0000,0.0000,
189,454.12,22020.51,-22020.51,1449.6000,65535.0000,1591.8000,142.2000,0.0000,0.0000,0.0000,
190,454.66,21994.44,-21994.44,1438.6000,65535.0000,1586.2000,147.6000,0.0000,0.0000,0.0000,
191,455.20,21968.44,-21968.44,1451.0000,65535.0000,1620.4000,169.4000,0.0000,0.0000,0.0000,
192,455.74,21942.51,-21942.51,1465.2000,65535.0000,1626.2000,161.0000,0.0000,0.0000,0.0000,
193,456.27,21916.66,-21916.66,1463.0000,65535.0000,1611.8000,148.8000,0.0000,0.0000,0.0000,
194,456.81,21890.87,-21890.87,1457.0000,65535.0000,1610.8000,153.8000,0.0000,0.0000,0.0000,
195,457.35,21865.16,-21865.16,1443.8000,65535.0000,1636.8000,193.0000,0.0000,0.0000,0.0000,
196,457.89,21839.51,-21839.51,1435.6000,65535.0000,1619.8000,184.2000,0.0000,0.0000,0.0000,
197,458.42,21813.94,-21813.94,1459.6000,65535.0000,1624.0000,164.4000,0.0000,0.0000,0.0000,
198,458.96,21788.43,-21788.43,1464.2000,65535.0000,1613.8000,149.6000,0.0000,0.0000,0.0000,
199,459.50,21763.00,-21763.00,1464.2000,65535.0000,1619.0000,154.8000,0.0000,0.0000,0.0000,
200,460.03,21737.63,-21737.63,1452.4000,65535.0000,1636.2000,183.8000,0.0000,0.0000,0.0000,
201,460.57,21712.33,-21712.33,1472.6000,65535.0000,1606.8000,134.2000,0.0000,0.0000,0.0000,
202,461.10,21687.10,-21687.10,1458.4000,65535.0000,1635.8000,177.4000,0.0000,0.0000,0.0000,
203,461.64,21661.94,-21661.94,1476.4000,65535.0000,1657.4000,181.0000,0.0000,0.0000,0.0000,
204,462.17,21636.85,-21636.85,1447.2000,65535.0000,1633.4000,186.2000,0.0000,0.0000,0.0000,
205,462.71,21611.82,-21611.82,1489.0000,65535.0000,1684.6000,195.6000,0.0000,0.0000,0.0000,
206,463.24,21586.86,-21586.86,1461.2000,65535.0000,1630.2000,169.0000,0.0000,0.0000,0.0000,
207,463.78,21561.97,-21561.97,1455.8000,65535.0000,1611.4000,155.6000,0.0000,0.0000,0.0000,
208,464.31,21537.15,-21537.15,1448.8000,65535.0000,1639.4000,190.6000,0.0000,0.0000,0.0000,
209,464.85,21512.39,-21512.39,1457.6000,65535.0000,1646.4000,188.8000,0.0000,0.0000,0.0000,
210,465.38,21487.70,-21487.70,1469.8000,65535.0000,1672.4000,202.6000,0.0000,0.0000,0.0000,
211,465.92,21463.07,-21463.07,1469.2000,65535.0000,1652.4000,183.2000,0.0000,0.0000,0.0000,
212,466.45,21438.51,-21438.51,1475.8000,65535.0000,1662.6000,186.8000,0.0000,0.0000,0.0000,
213,466.98,21414.02,-21414.02,1477.0000,65535.0000,1654.6000,177.6000,0.0000,0.0000,0.0000,
214,467.52,21389.59,-21389.59,1442.8000,65535.0000,1635.0000,192.2000,0.0000,0.0000,0.0000,
215,468.05,21365.23,-21365.23,1441.8000,65535.0000,1660.6000,218.8000,0.0000,0.0000,0.0000,
216,468.58,21340.93,-21340.93,1469.8000,65535.0000,1678.8000,209.0000,0.0000,0.0000,0.0000,
217,469.12,21316.70,-21316.70,1455.2000,65535.0000,1683.8000,228.6000,0.0000,0.0000,0.0000,
218,469.65,21292.53,-21292.53,1454.0000,65535.0000,1680.4000,226.4000,0.0000,0.0000,0.0000,
219,470.18,21268.42,-21268.42,1444.0000,65535.0000,1704.8000,260.8000,0.0000,0.0000,0.0000,
220,470.71,21244.38,-21244.38,1484.4000,65535.0000,1655.2000,170.8000,0.0000,0.0000,0.0000,
221,471.24,21220.40,-21220.40,1462.6000,65535.0000,1682.8000,220.2000,0.0000,0.0000,0.0000,
222,471.78,21196.49,-21196.49,1455.8000,65535.0000,1699.2000,243.4000,0.0000,0.0000,0.0000,
223,472.31,21172.64,-21172.64,1461.0000,65535.0000,1695.2000,234.2000,0.0000,0.0000,0.0000,
224,472.84,21148.85,-21148.85,1450.8000,65535.0000,1708.4000,257.6000,0.0000,0.0000,0.0000,
225,473.37,21125.12,-21125.12,1447.4000,65535.0000,1720.2000,272.8000,0.0000,0.0000,0.0000,
226,473.90,21101.46,-21101.46,1464.2000,65535.0000,1708.4000,244.2000,0.0000,0.0000,0.0000,
227,474.43,21077.86,-21077.86,1458.6000,65535.0000,1724.8000,266.2000,0.0000,0.0000,0.0000,
228,474.96,21054.32,-21054.32,1473.8000,65535.0000,1745.2000,271.4000,0.0000,0.0000,0.0000,
229,475.49,21030.84,-21030.84,1462.4000,65535.0000,1737.6000,275.2000,0.0000,0.0000,0.0000,
230,476.02,21007.43,-21007.43,1462.0000,65535.0000,1752.0000,290.0000,0.0000,0.0000,0.0000,
231,476.55,20984.07,-20984.07,1449.4000,65535.0000,1746.0000,296.6000,0.0000,0.0000,0.0000,
232,477.08,20960.78,-20960.78,1471.0000,65535.0000,1727.0000,256.0000,0.0000,0.0000,0.0000,
233,477.61,20937.54,-20937.54,1465.2000,65535.0000,1778.0000,312.8000,0.0000,0.0000,0.0000,
234,478.14,20914.37,-20914.37,1435.8000,65535.0000,1765.4000,329.6000,0.0000,0.0000,0.0000,
235,478.67,20891.26,-20891.26,1418.8000,65535.0000,1773.8000,355.0000,0.0000,0.0000,0.0000,
236,479.20,20868.20,-20868.20,1455.6000,65535.0000,1781.4000,325.8000,0.0000,0.0000,0.0000,
237,479.73,20845.21,-20845.21,1467.4000,65535.0000,1810.0000,342.6000,0.0000,0.0000,0.0000,
238,480.25,20822.28,-20822.28,1457.8000,65535.0000,1804.4000,346.6000,0.0000,0.0000,0.0000,
239,480.78,20799.40,-20799.40,1459.6000,65535.0000,1819.0000,359.4000,0.0000,0.0000,0.0000,
240,481.31,20776.59,-20776.59,1440.0000,65535.0000,1810.0000,370.0000,0.0000,0.0000,0.0000,
241,481.84,20753.83,-20753.83,1452.4000,65535.0000,1823.6000,371.2000,0.0000,0.0000,0.0000,
242,482.37,20731.14,-20731.14,1469.2000,65535.0000,1864.0000,394.8000,0.0000,0.0000,0.0000,
243,482.89,20708.50,-20708.50,1468.2000,65535.0000,1865.2000,397.0000,0.0000,0.0000,0.0000,
244,483.42,20685.92,-20685.92,1458.0000,65535.0000,1845.2000,387.2000,0.0000,0.0000,0.0000,
245,483.95,20663.40,-20663.40,1449.2000,65535.0000,1870.4000,421.2000,0.0000,0.0000,0.0000,
246,484.47,20640.93,-20640.93,1450.4000,65535.0000,1879.6000,429.2000,0.0000,0.0000,0.0000,
247,485.00,20618.52,-20618.52,1483.6000,65535.0000,1876.6000,393.0000,0.0000,0.0000,0.0000,
248,485.53,20596.17,-20596.17,1473.0000,65535.0000,1921.2000,448.2000,0.0000,0.0000,0.0000,
249,486.05,20573.88,-20573.88,1471.2000,65535.0000,1935.6000,464.4000,0.0000,0.0000,0.0000,
250,486.58,20551.65,-20551.65,1463.8000,65535.0000,1943.2000,479.4000,0.0000,0.0000,0.0000,
251,487.10,20529.47,-20529.47,1450.0000,65535.0000,1904.0000,454.0000,0.0000,0.0000,0.0000,
252,487.63,20507.35,-20507.35,1439.4000,65535.0000,1931.4000,492.0000,0.0000,0.0000,0.0000,
253,488.16,20485.28,-20485.28,1453.4000,65535.0000,1971.2000,517.8000,0.0000,0.0000,0.0000,
254,488.68,20463.27,-20463.27,1467.8000,65535.0000,1965.4000,497.6000,0.0000,0.0000,0.0000,
255,489.21,20441.32,-20441.32,1470.8000,65535.0000,1979.4000,508.6000,0.0000,0.0000,0.0000,
256,489.73,20419.42,-20419.42,1471.0000,65535.0000,1965.0000,494.0000,0.0000,0.0000,0.0000,
257,490.25,20397.57,-20397.57,1463.8000,65535.0000,1987.8000,524.0000,0.0000,0.0000,0.0000,
258,490.78,20375.79,-20375.79,1463.8000,65535.0000,2008.4000,544.6000,0.0000,0.0000,0.0000,
259,491.30,20354.05,-20354.05,1450.6000,65535.0000,2022.0000,571.4000,0.0000,0.0000,0.0000,
260,491.83,20332.38,-20332.38,1460.4000,65535.0000,2019.6000,559.2000,0.0000,0.0000,0.0000,
261,492.35,20310.75,-20310.75,1469.2000,65535.0000,2030.0000,560.8000,0.0000,0.0000,0.0000,
262,492.87,20289.19,-20289.19,1447.2000,65535.0000,2013.4000,566.2000,0.0000,0.0000,0.0000,
263,493.40,20267.67,-20267.67,1471.4000,65535.0000,2045.4000,574.0000,0.0000,0.0000,0.0000,
264,493.92,20246.21,-20246.21,1439.4000,65535.0000,2052.0000,612.6000,0.0000,0.0000,0.0000,
265,494.44,20224.80,-20224.80,1463.2000,65535.0000,2045.4000,582.2000,0.0000,0.0000,0.0000,
266,494.96,20203.45,-20203.45,1458.0000,65535.0000,2050.2000,592.2000,0.0000,0.0000,0.0000,
267,495.49,20182.15,-20182.15,1461.0000,65535.0000,2078.4000,617.4000,0.0000,0.0000,0.0000,
268,496.01,20160.91,-20160.91,1459.8000,65535.0000,2079.8000,620.0000,0.0000,0.0000,0.0000,
269,496.53,20139.71,-20139.71,1476.2000,65535.0000,2088.4000,612.2000,0.0000,0.0000,0.0000,
270,497.05,20118.57,-20118.57,1488.6000,65535.0000,2062.2000,573.6000,0.0000,0.0000,0.0000,
271,497.57,20097.49,-20097.49,1462.4000,65535.0000,2093.8000,631.4000,0.0000,0.0000,0.0000,
272,498.10,20076.45,-20076.45,1454.2000,65535.0000,2087.0000,632.8000,0.0000,0.0000,0.0000,
273,498.62,20055.47,-20055.47,1484.2000,65535.0000,2100.4000,616.2000,0.0000,0.0000,0.0000,
274,499.14,20034.54,-20034.54,1448.6000,65535.0000,2096.2000,647.6000,0.0000,0.0000,0.0000,
275,499.66,20013.66,-20013.66,1483.0000,65535.0000,2117.6000,634.6000,0.0000,0.0000,0.0000,
276,500.18,19992.83,-19992.83,1461.6000,65535.0000,2127.2000,665.6000,0.0000,0.0000,0.0000,
277,500.70,19972.06,-19972.06,1446.6000,65535.0000,2112.2000,665.6000,0.0000,0.0000,0.0000,
278,501.22,19951.34,-19951.34,1470.0000,65535.0000,2140.2000,670.2000,0.0000,0.0000,0.0000,
279,501.74,19930.66,-19930.66,1452.6000,65535.0000,2109.6000,657.0000,0.0000,0.0000,0.0000,
280,502.26,19910.04,-19910.04,1463.0000,65535.0000,2167.2000,704.2000,0.0000,0.0000,0.0000,
281,502.78,19889.47,-19889.47,1459.6000,65535.0000,2178.8000,719.2000,0.0000,0.0000,0.0000,
282,503.30,19868.95,-19868.95,1466.0000,65535.0000,2175.0000,709.0000,0.0000,0.0000,0.0000,
283,503.82,19848.48,-19848.48,1477.0000,65535.0000,2203.4000,726.4000,0.0000,0.0000,0.0000,
284,504.34,19828.06,-19828.06,1461.4000,65535.0000,2183.8000,722.4000,0.0000,0.0000,0.0000,
285,504.85,19807.69,-19807.69,1462.6000,65535.0000,2184.0000,721.4000,0.0000,0.0000,0.0000,
286,505.37,19787.38,-19787.38,1460.2000,65535.0000,2197.8000,737.6000,0.0000,0.0000,0.0000,
287,505.89,19767.11,-19767.11,1455.4000,65535.0000,2200.4000,745.0000,0.0000,0.0000,0.0000,
288,506.41,19746.89,-19746.89,1467.0000,65535.0000,2202.4000,735.4000,0.0000,0.0000,0.0000,
289,506.93,19726.72,-19726.72,1476.6000,65535.0000,2235.4000,758.8000,0.0000,0.0000,0.0000,
290,507.44,19706.59,-19706.59,1465.2000,65535.0000,2264.2000,799.0000,0.0000,0.0000,0.0000,
291,507.96,19686.52,-19686.52,1477.2000,65535.0000,2265.6000,788.4000,0.0000,0.0000,0.0000,
292,508.48,19666.50,-19666.50,1462.0000,65535.0000,2272.4000,810.4000,0.0000,0.0000,0.0000,
293,509.00,19646.52,-19646.52,1460.4000,65535.0000,2256.6000,796.2000,0.0000,0.0000,0.0000,
294,509.51,19626.60,-19626.60,1468.0000,65535.0000,2253.6000,785.6000,0.0000,0.0000,0.0000,
295,510.03,19606.72,-19606.72,1441.6000,65535.0000,2238.6000,797.0000,0.0000,0.0000,0.0000,
296,510.55,19586.89,-19586.89,1462.8000,65535.0000,2294.0000,831.2000,0.0000,0.0000,0.0000,
297,511.06,19567.11,-19567.11,1457.6000,65535.0000,2304.8000,847.2000,0.0000,0.0000,0.0000,
298,511.58,19547.38,-19547.38,1473.6000,65535.0000,2290.2000,816.6000,0.0000,0.0000,0.0000,
299,512.09,19527.69,-19527.69,1445.4000,65535.0000,2317.2000,871.8000,0.0000,0.0000,0.0000,
300,512.61,19508.05,-19508.05,1470.4000,65535.0000,2314.2000,843.8000,0.0000,0.0000,0.0000,
301,513.12,19488.46,-19488.46,1440.6000,65535.0000,2362.0000,921.4000,0.0000,0.0000,0.0000,
302,513.64,19468.92,-19468.92,1474.6000,65535.0000,2342.0000,867.4000,0.0000,0.0000,0.0000,
303,514.15,19449.42,-19449.42,1468.6000,65535.0000,2323.0000,854.4000,0.0000,0.0000,0.0000,
304,514.67,19429.97,-19429.97,1462.8000,65535.0000,2396.6000,933.8000,0.0000,0.0000,0.0000,
305,515.18,19410.56,-19410.56,1453.0000,65535.0000,2387.8000,934.8000,0.0000,0.0000,0.0000,
306,515.70,19391.21,-19391.21,1484.0000,65535.0000,2401.6000,917.6000,0.0000,0.0000,0.0000,
307,516.21,19371.90,-19371.90,1475.4000,65535.0000,2428.4000,953.0000,0.0000,0.0000,0.0000,
308,516.73,19352.63,-19352.63,1459.2000,65535.0000,2461.6000,1002.4000,0.0000,0.0000,0.0000,
309,517.24,19333.41,-19333.41,1453.0000,65535.0000,2464.8000,1011.8000,0.0000,0.0000,0.0000,
310,517.75,19314.24,-19314.24,1456.0000,65535.0000,2473.2000,1017.2000,0.0000,0.0000,0.0000,
311,518.27,19295.11,-19295.11,1464.2000,65535.0000,2478.0000,1013.8000,0.0000,0.0000,0.0000,
312,518.78,19276.03,-19276.03,1477.8000,65535.0000,2476.8000,999.0000,0.0000,0.0000,0.0000,
313,519.29,19257.00,-19257.00,1451.8000,65535.0000,2495.4000,1043.6000,0.0000,0.0000,0.0000,
314,519.80,19238.01,-19238.01,1445.4000,65535.0000,2516.6000,1071.2000,0.0000,0.0000,0.0000,
315,520.32,19219.06,-19219.06,1475.2000,65535.0000,2513.8000,1038.6000,0.0000,0.0000,0.0000,
316,520.83,19200.16,-19200.16,1443.0000,65535.0000,2504.4000,1061.4000,0.0000,0.0000,0.0000,
317,521.34,19181.30,-19181.30,1478.4000,65535.0000,2533.4000,1055.0000,0.0000,0.0000,0.0000,
318,521.85,19162.49,-19162.49,1454.0000,65535.0000,2531.0000,1077.0000,0.0000,0.0000,0.0000,
319,522.36,19143.73,-19143.73,1452.2000,65535.0000,2562.6000,1110.4000,0.0000,0.0000,0.0000,
320,522.88,19125.00,-19125.00,1484.0000,65535.0000,2574.4000,1090.4000,0.0000,0.0000,0.0000,
321,523.39,19106.33,-19106.33,1478.6000,65535.0000,2578.4000,1099.8000,0.0000,0.0000,0.0000,
322,523.90,19087.69,-19087.69,1454.6000,65535.0000,2617.4000,1162.8000,0.0000,0.0000,0.0000,
323,524.41,19069.10,-19069.10,1456.2000,65535.0000,2601.6000,1145.4000,0.0000,0.0000,0.0000,
324,524.92,19050.55,-19050.55,1463.2000,65535.0000,2601.6000,1138.4000,0.0000,0.0000,0.0000,
325,525.43,19032.05,-19032.05,1462.2000,65535.0000,2630.0000,1167.8000,0.0000,0.0000,0.0000,
326,525.94,19013.59,-19013.59,1472.8000,65535.0000,2639.2000,1166.4000,0.0000,0.0000,0.0000,
327,526.45,18995.17,-18995.17,1426.4000,65535.0000,2610.6000,1184.2000,0.0000,0.0000,0.0000,
328,526.96,18976.80,-18976.80,1448.0000,65535.0000,2629.0000,1181.0000,0.0000,0.0000,0.0000,
329,527.47,18958.47,-18958.47,1468.4000,65535.0000,2692.6000,1224.2000,0.0000,0.0000,0.0000,
330,527.98,18940.18,-18940.18,1457.4000,65535.0000,2702.0000,1244.6000,0.0000,0.0000,0.0000,
331,528.49,18921.94,-18921.94,1482.0000,65535.0000,2685.2000,1203.2000,0.0000,0.0000,0.0000,
332,529.00,18903.74,-18903.74,1445.6000,65535.0000,2705.2000,1259.6000,0.0000,0.0000,0.0000,
333,529.50,18885.58,-18885.58,1480.2000,65535.0000,2708.6000,1228.4000,0.0000,0.0000,0.0000,
334,530.01,18867.46,-18867.46,1454.2000,65535.0000,2743.2000,1289.0000,0.0000,0.0000,0.0000,
335,530.52,18849.38,-18849.38,1419.4000,65535.0000,2726.2000,1306.8000,0.0000,0.0000,0.0000,
336,531.03,18831.35,-18831.35,1460.2000,65535.0000,2741.6000,1281.4000,0.0000,0.0000,0.0000,
337,531.54,18813.36,-18813.36,1455.8000,65535.0000,2777.4000,1321.6000,0.0000,0.0000,0.0000,
338,532.04,18795.41,-18795.41,1445.0000,65535.0000,2766.2000,1321.2000,0.0000,0.0000,0.0000,
339,532.55,18777.50,-18777.50,1456.8000,65535.0000,2767.2000,1310.4000,0.0000,0.0000,0.0000,
340,533.06,18759.63,-18759.63,1439.8000,65535.0000,2803.4000,1363.6000,0.0000,0.0000,0.0000,
341,533.57,18741.80,-18741.80,1423.6000,65535.0000,2816.4000,1392.8000,0.0000,0.0000,0.0000,
342,534.07,18724.02,-18724.02,1454.2000,65535.0000,2801.2000,1347.0000,0.0000,0.0000,0.0000,
343,534.58,18706.28,-18706.28,1446.6000,65535.0000,2789.6000,1343.0000,0.0000,0.0000,0.0000,
344,535.09,18688.57,-18688.57,1458.2000,65535.0000,2788.8000,1330.6000,0.0000,0.0000,0.0000,
345,535.59,18670.91,-18670.91,1468.6000,65535.0000,2804.8000,1336.2000,0.0000,0.0000,0.0000,
346,536.10,18653.29,-18653.29,1446.2000,65535.0000,2846.4000,1400.2000,0.0000,0.0000,0.0000,
347,536.60,18635.71,-18635.71,1449.0000,65535.0000,2832.6000,1383.6000,0.0000,0.0000,0.0000,
348,537.11,18618.17,-18618.17,1448.8000,65535.0000,2815.8000,1367.0000,0.0000,0.0000,0.0000,
349,537.62,18600.67,-18600.67,1445.2000,65535.0000,2836.8000,1391.6000,0.0000,0.0000,0.0000,
350,538.12,18583.21,-18583.21,1446.0000,65535.0000,2893.2000,1447.2000,0.0000,0.0000,0.0000,
351,538.63,18565.78,-18565.78,1451.2000,65535.0000,2864.8000,1413.6000,0.0000,0.0000,0.0000,
352,539.13,18548.40,-18548.40,1455.8000,65535.0000,2861.8000,1406.0000,0.0000,0.0000,0.0000,
353,539.63,18531.06,-18531.06,1461.4000,65535.0000,2862.2000,1400.8000,0.0000,0.0000,0.0000,
354,540.14,18513.76,-18513.76,1449.8000,65535.0000,2900.4000,1450.6000,0.0000,0.0000,0.0000,
355,540.64,18496.50,-18496.50,1473.2000,65535.0000,2914.0000,1440.8000,0.0000,0.0000,0.0000,
356,541.15,18479.28,-18479.28,1448.6000,65535.0000,2961.0000,1512.4000,0.0000,0.0000,0.0000,
357,541.65,18462.09,-18462.09,1446.4000,65535.0000,2942.8000,1496.4000,0.0000,0.0000,0.0000,
358,542.15,18444.95,-18444.95,1446.2000,65535.0000,2976.4000,1530.2000,0.0000,0.0000,0.0000,
359,542.66,18427.84,-18427.84,1446.2000,65535.0000,2974.4000,1528.2000,0.0000,0.0000,0.0000,
360,543.16,18410.77,-18410.77,1481.2000,65535.0000,2998.4000,1517.2000,0.0000,0.0000,0.0000,
361,543.66,18393.74,-18393.74,1479.2000,65535.0000,3029.2000,1550.0000,0.0000,0.0000,0.0000,
362,544.17,18376.75,-18376.75,1482.2000,65535.0000,3001.8000,1519.6000,0.0000,0.0000,0.0000,
363,544.67,18359.80,-18359.80,1480.8000,65535.0000,3092.2000,1611.4000,0.0000,0.0000,0.0000,
364,545.17,18342.89,-18342.89,1478.2000,65535.0000,3092.0000,1613.8000,0.0000,0.0000,0.0000,
365,545.67,18326.01,-18326.01,1477.0000,65535.0000,3092.4000,1615.4000,0.0000,0.0000,0.0000,
366,546.17,18309.17,-18309.17,1491.0000,65535.0000,3126.0000,1635.0000,0.0000,0.0000,0.0000,
367,546.68,18292.37,-18292.37,1483.4000,65535.0000,3134.6000,1651.2000,0.0000,0.0000,0.0000,
368,547.18,18275.61,-18275.61,1475.0000,65535.0000,3157.6000,1682.6000,0.0000,0.0000,0.0000,
369,547.68,18258.89,-18258.89,1480.4000,65535.0000,3163.2000,1682.8000,0.0000,0.0000,0.0000,
370,548.18,18242.20,-18242.20,1452.8000,65535.0000,3186.8000,1734.0000,0.0000,0.0000,0.0000,
371,548.68,18225.55,-18225.55,1473.8000,65535.0000,3177.6000,1703.8000,0.0000,0.0000,0.0000,
372,549.18,18208.94,-18208.94,1451.4000,65535.0000,3225.6000,1774.2000,0.0000,0.0000,0.0000,
373,549.68,18192.37,-18192.37,1445.8000,65535.0000,3255.2000,1809.4000,0.0000,0.0000,0.0000,
374,550.18,18175.83,-18175.83,1427.6000,65535.0000,3285.6000,1858.0000,0.0000,0.0000,0.0000,
375,550.68,18159.33,-18159.33,1474.2000,65535.0000,3326.0000,1851.8000,0.0000,0.0000,0.0000,
376,551.18,18142.86,-18142.86,1442.8000,65535.0000,3286.4000,1843.6000,0.0000,0.0000,0.0000,
377,551.68,18126.43,-18126.43,1457.8000,65535.0000,3347.4000,1889.6000,0.0000,0.0000,0.0000,
378,552.18,18110.04,-18110.04,1479.8000,65535.0000,3348.6000,1868.8000,0.0000,0.0000,0.0000,
379,552.68,18093.69,-18093.69,1491.2000,65535.0000,3369.8000,1878.6000,0.0000,0.0000,0.0000,
380,553.18,18077.37,-18077.37,1450.0000,65535.0000,3386.0000,1936.0000,0.0000,0.0000,0.0000,
381,553.68,18061.09,-18061.09,1481.6000,65535.0000,3363.6000,1882.0000,0.0000,0.0000,0.0000,
382,554.18,18044.84,-18044.84,1492.8000,65535.0000,3403.4000,1910.6000,0.0000,0.0000,0.0000,
383,554.67,18028.63,-18028.63,1458.2000,65535.0000,3473.6000,2015.4000,0.0000,0.0000,0.0000,
384,555.17,18012.46,-18012.46,1433.6000,65535.0000,3516.6000,2083.0000,0.0000,0.0000,0.0000,
385,555.67,17996.32,-17996.32,1448.8000,65535.0000,3496.0000,2047.2000,0.0000,0.0000,0.0000,
386,556.17,17980.22,-17980.22,1475.2000,65535.0000,3515.8000,2040.6000,0.0000,0.0000,0.0000,
387,556.66,17964.15,-17964.15,1481.0000,65535.0000,3500.0000,2019.0000,0.0000,0.0000,0.0000,
388,557.16,17948.12,-17948.12,1458.0000,65535.0000,3570.8000,2112.8000,0.0000,0.0000,0.0000,
389,557.66,17932.12,-17932.12,1427.0000,65535.0000,3624.4000,2197.4000,0.0000,0.0000,0.0000,
390,558.16,17916.16,-17916.16,1446.8000,65535.0000,3645.2000,2198.4000,0.0000,0.0000,0.0000,
391,558.65,17900.23,-17900.23,1446.4000,65535.0000,3646.2000,2199.8000,0.0000,0.0000,0.0000,
392,559.15,17884.34,-17884.34,1441.8000,65535.0000,3650.8000,2209.0000,0.0000,0.0000,0.0000,
393,559.64,17868.48,-17868.48,1445.2000,65535.0000,3676.8000,2231.6000,0.0000,0.0000,0.0000,
394,560.14,17852.66,-17852.66,1452.2000,65535.0000,3686.2000,2234.0000,0.0000,0.0000,0.0000,
395,560.64,17836.87,-17836.87,1462.6000,65535.0000,3743.8000,2281.2000,0.0000,0.0000,0.0000,
396,561.13,17821.12,-17821.12,1475.8000,65535.0000,3766.0000,2290.2000,0.0000,0.0000,0.0000,
397,561.63,17805.40,-17805.40,1445.2000,65535.0000,3758.4000,2313.2000,0.0000,0.0000,0.0000,
398,562.12,17789.72,-17789.72,1462.2000,65535.0000,3793.0000,2330.8000,0.0000,0.0000,0.0000,
399,562.62,17774.07,-17774.07,1452.2000,65535.0000,3777.4000,2325.2000,0.0000,0.0000,0.0000,
400,563.11,17758.45,-17758.45,1445.4000,65535.0000,3814.8000,2369.4000,0.0000,0.0000,0.0000,
401,563.61,17742.87,-17742.87,1448.6000,65535.0000,3864.2000,2415.6000,0.0000,0.0000,0.0000,
402,564.10,17727.32,-17727.32,1445.2000,65535.0000,3873.2000,2428.0000,0.0000,0.0000,0.0000,
403,564.60,17711.81,-17711.81,1460.0000,65535.0000,3925.4000,2465.4000,0.0000,0.0000,0.0000,
404,565.09,17696.33,-17696.33,1467.6000,65535.0000,3963.6000,2496.0000,0.0000,0.0000,0.0000,
405,565.58,17680.88,-17680.88,1452.0000,65535.0000,3948.6000,2496.6000,0.0000,0.0000,0.0000,
406,566.08,17665.47,-17665.47,1479.4000,65535.0000,3981.6000,2502.2000,0.0000,0.0000,0.0000,
407,566.57,17650.09,-17650.09,1460.6000,65535.0000,3983.0000,2522.4000,0.0000,0.0000,0.0000,
408,567.06,17634.74,-17634.74,1475.0000,65535.0000,4011.0000,2536.0000,0.0000,0.0000,0.0000,
409,567.56,17619.42,-17619.42,1458.4000,65535.0000,3993.8000,2535.4000,0.0000,0.0000,0.0000,
410,568.05,17604.14,-17604.14,1472.4000,65535.0000,3993.8000,2521.4000,0.0000,0.0000,0.0000,
411,568.54,17588.90,-17588.90,1466.6000,65535.0000,4029.0000,2562.4000,0.0000,0.0000,0.0000,
412,569.03,17573.68,-17573.68,1441.6000,65535.0000,4060.2000,2618.6000,0.0000,0.0000,0.0000,
413,569.52,17558.50,-17558.50,1456.6000,65535.0000,4044.2000,2587.6000,0.0000,0.0000,0.0000,
414,570.02,17543.35,-17543.35,1449.6000,65535.0000,4090.0000,2640.4000,0.0000,0.0000,0.0000,
415,570.51,17528.23,-17528.23,1466.6000,65535.0000,4086.6000,2620.0000,0.0000,0.0000,0.0000,
416,571.00,17513.15,-17513.15,1435.0000,65535.0000,4132.4000,2697.4000,0.0000,0.0000,0.0000,
417,571.49,17498.09,-17498.09,1427.8000,65535.0000,4126.4000,2698.6000,0.0000,0.0000,0.0000,
418,571.98,17483.07,-17483.07,1463.4000,65535.0000,4091.2000,2627.8000,0.0000,0.0000,0.0000,
419,572.47,17468.08,-17468.08,1467.0000,65535.0000,4071.8000,2604.8000,0.0000,0.0000,0.0000,
420,572.96,17453.13,-17453.13,1479.2000,65535.0000,4147.2000,2668.0000,0.0000,0.0000,0.0000,
421,573.45,17438.20,-17438.20,1450.0000,65535.0000,4138.4000,2688.4000,0.0000,0.0000,0.0000,
422,573.94,17423.31,-17423.31,1457.8000,65535.0000,4127.2000,2669.4000,0.0000,0.0000,0.0000,
423,574.43,17408.45,-17408.45,1439.0000,65535.0000,4069.2000,2630.2000,0.0000,0.0000,0.0000,
424,574.92,17393.62,-17393.62,1487.0000,65535.0000,4125.6000,2638.6000,0.0000,0.0000,0.0000,
425,575.41,17378.82,-17378.82,1444.4000,65535.0000,4151.4000,2707.0000,0.0000,0.0000,0.0000,
426,575.90,17364.06,-17364.06,1473.2000,65535.0000,4123.6000,2650.4000,0.0000,0.0000,0.0000,
427,576.39,17349.32,-17349.32,1458.4000,65535.0000,4163.2000,2704.8000,0.0000,0.0000,0.0000,
428,576.88,17334.62,-17334.62,1451.8000,65535.0000,4150.4000,2698.6000,0.0000,0.0000,0.0000,
429,577.37,17319.95,-17319.95,1431.6000,65535.0000,4112.4000,2680.8000,0.0000,0.0000,0.0000,
430,577.86,17305.31,-17305.31,1428.0000,65535.0000,4121.2000,2693.2000,0.0000,0.0000,0.0000,
431,578.35,17290.70,-17290.70,1448.6000,65535.0000,4112.2000,2663.6000,0.0000,0.0000,0.0000,
432,578.83,17276.12,-17276.12,1451.2000,65535.0000,4128.2000,2677.0000,0.0000,0.0000,0.0000,
433,579.32,17261.57,-17261.57,1446.2000,65535.0000,4125.2000,2679.0000,0.0000,0.0000,0.0000,
434,579.81,17247.05,-17247.05,1442.0000,65535.0000,4097.8000,2655.8000,0.0000,0.0000,0.0000,
435,580.30,17232.56,-17232.56,1472.2000,65535.0000,4099.8000,2627.6000,0.0000,0.0000,0.0000,
436,580.78,17218.10,-17218.10,1463.6000,65535.0000,4135.4000,2671.8000,0.0000,0.0000,0.0000,
437,581.27,17203.68,-17203.68,1474.4000,65535.0000,4100.4000,2626.0000,0.0000,0.0000,0.0000,
438,581.76,17189.28,-17189.28,1450.8000,65535.0000,4066.0000,2615.2000,0.0000,0.0000,0.0000,
439,582.24,17174.92,-17174.92,1434.8000,65535.0000,4050.8000,2616.0000,0.0000,0.0000,0.0000,
440,582.73,17160.58,-17160.58,1448.4000,65535.0000,4063.0000,2614.6000,0.0000,0.0000,0.0000,
441,583.22,17146.27,-17146.27,1419.8000,65535.0000,4066.2000,2646.4000,0.0000,0.0000,0.0000,
442,583.70,17132.00,-17132.00,1464.8000,65535.0000,4019.8000,2555.0000,0.0000,0.0000,0.0000,
443,584.19,17117.75,-17117.75,1467.6000,65535.0000,4035.0000,2567.4000,0.0000,0.0000,0.0000,
444,584.67,17103.54,-17103.54,1447.2000,65535.0000,4021.0000,2573.8000,0.0000,0.0000,0.0000,
445,585.16,17089.35,-17089.35,1447.6000,65535.0000,4039.6000,2592.0000,0.0000,0.0000,0.0000,
446,585.64,17075.19,-17075.19,1450.4000,65535.0000,4000.6000,2550.2000,0.0000,0.0000,0.0000,
447,586.13,17061.07,-17061.07,1456.2000,65535.0000,4002.0000,2545.8000,0.0000,0.0000,0.0000,
448,586.61,17046.97,-17046.97,1450.4000,65535.0000,3988.6000,2538.2000,0.0000,0.0000,0.0000,
449,587.10,17032.90,-17032.90,1447.4000,65535.0000,4010.4000,2563.0000,0.0000,0.0000,0.0000,
450,587.58,17018.86,-17018.86,1461.8000,65535.0000,4028.0000,2566.2000,0.0000,0.0000,0.0000,
451,588.07,17004.85,-17004.85,1453.0000,65535.0000,3985.4000,2532.4000,0.0000,0.0000,0.0000,
452,588.55,16990.87,-16990.87,1452.4000,65535.0000,3967.6000,2515.2000,0.0000,0.0000,0.0000,
453,589.04,16976.92,-16976.92,1448.8000,65535.0000,4001.6000,2552.8000,0.0000,0.0000,0.0000,
454,589.52,16962.99,-16962.99,1441.8000,65535.0000,4005.6000,2563.8000,0.0000,0.0000,0.0000,
455,590.00,16949.10,-16949.10,1476.2000,65535.0000,4015.0000,2538.8000,0.0000,0.0000,0.0000,
456,590.48,16935.23,-16935.23,1453.8000,65535.0000,3984.4000,2530.6000,0.0000,0.0000,0.0000,
457,590.97,16921.40,-16921.40,1457.2000,65535.0000,3978.4000,2521.2000,0.0000,0.0000,0.0000,
458,591.45,16907.59,-16907.59,1462.8000,65535.0000,3957.0000,2494.2000,0.0000,0.0000,0.0000,
459,591.93,16893.81,-16893.81,1461.6000,65535.0000,3982.8000,2521.2000,0.0000,0.0000,0.0000,
460,592.42,16880.06,-16880.06,1475.0000,65535.0000,3969.4000,2494.4000,0.0000,0.0000,0.0000,
461,592.90,16866.33,-16866.33,1477.8000,65535.0000,3985.0000,2507.2000,0.0000,0.0000,0.0000,
462,593.38,16852.64,-16852.64,1449.2000,65535.0000,3991.2000,2542.0000,0.0000,0.0000,0.0000,
463,593.86,16838.97,-16838.97,1442.8000,65535.0000,3988.2000,2545.4000,0.0000,0.0000,0.0000,
464,594.34,16825.33,-16825.33,1439.0000,65535.0000,3965.4000,2526.4000,0.0000,0.0000,0.0000,
465,594.82,16811.72,-16811.72,1476.6000,65535.0000,3974.0000,2497.4000,0.0000,0.0000,0.0000,
466,595.30,16798.14,-16798.14,1467.6000,65535.0000,4034.8000,2567.2000,0.0000,0.0000,0.0000,
467,595.78,16784.58,-16784.58,1473.2000,65535.0000,4032.0000,2558.8000,0.0000,0.0000,0.0000,
468,596.27,16771.05,-16771.05,1460.6000,65535.0000,4001.8000,2541.2000,0.0000,0.0000,0.0000,
469,596.75,16757.55,-16757.55,1469.6000,65535.0000,4038.6000,2569.0000,0.0000,0.0000,0.0000,
470,597.23,16744.08,-16744.08,1448.8000,65535.0000,4055.4000,2606.6000,0.0000,0.0000,0.0000,
471,597.71,16730.64,-16730.64,1460.8000,65535.0000,4044.4000,2583.6000,0.0000,0.0000,0.0000,
472,598.19,16717.22,-16717.22,1439.8000,65535.0000,4033.0000,2593.2000,0.0000,0.0000,0.0000,
473,598.67,16703.83,-16703.83,1456.6000,65535.0000,4017.0000,2560.4000,0.0000,0.0000,0.0000,
474,599.14,16690.47,-16690.47,1450.6000,65535.0000,4062.4000,2611.8000,0.0000,0.0000,0.0000,
475,599.62,16677.13,-16677.13,1460.2000,65535.0000,4036.6000,2576.4000,0.0000,0.0000,0.0000,
476,600.10,16663.82,-16663.82,1449.8000,65535.0000,4074.2000,2624.4000,0.0000,0.0000,0.0000,
477,600.58,16650.54,-16650.54,1418.6000,65535.0000,4060.0000,2641.4000,0.0000,0.0000,0.0000,
478,601.06,16637.29,-16637.29,1452.4000,65535.0000,4098.4000,2646.0000,0.0000,0.0000,0.0000,
479,601.54,16624.06,-16624.06,1465.0000,65535.0000,4095.2000,2630.2000,0.0000,0.0000,0.0000,
480,602.02,16610.86,-16610.86,1444.6000,65535.0000,4125.4000,2680.8000,0.0000,0.0000,0.0000,
481,602.49,16597.68,-16597.68,1440.6000,65535.0000,4115.2000,2674.6000,0.0000,0.0000,0.0000,
482,602.97,16584.54,-16584.54,1463.6000,65535.0000,4132.8000,2669.2000,0.0000,0.0000,0.0000,
483,603.45,16571.42,-16571.42,1460.8000,65535.0000,4146.8000,2686.0000,0.0000,0.0000,0.0000,
484,603.93,16558.32,-16558.32,1481.4000,65535.0000,4171.4000,2690.0000,0.0000,0.0000,0.0000,
485,604.40,16545.25,-16545.25,1476.2000,65535.0000,4172.4000,2696.2000,0.0000,0.0000,0.0000,
486,604.88,16532.21,-16532.21,1482.0000,65535.0000,4160.2000,2678.2000,0.0000,0.0000,0.0000,
487,605.36,16519.20,-16519.20,1443.0000,65535.0000,4149.6000,2706.6000,0.0000,0.0000,0.0000,
488,605.83,16506.21,-16506.21,1454.0000,65535.0000,4168.8000,2714.8000,0.0000,0.0000,0.0000,
489,606.31,16493.24,-16493.24,1476.0000,65535.0000,4176.4000,2700.4000,0.0000,0.0000,0.0000,
490,606.78,16480.31,-16480.31,1464.0000,65535.0000,4219.6000,2755.6000,0.0000,0.0000,0.0000,
491,607.26,16467.39,-16467.39,1455.0000,65535.0000,4183.8000,2728.8000,0.0000,0.0000,0.0000,
492,607.74,16454.51,-16454.51,1454.8000,65535.0000,4233.6000,2778.8000,0.0000,0.0000,0.0000,
493,608.21,16441.65,-16441.65,1456.4000,65535.0000,4204.8000,2748.4000,0.0000,0.0000,0.0000,
494,608.69,16428.82,-16428.82,1471.4000,65535.0000,4187.2000,2715.8000,0.0000,0.0000,0.0000,
495,609.16,16416.01,-16416.01,1455.6000,65535.0000,4221.6000,2766.0000,0.0000,0.0000,0.0000,
496,609.64,16403.22,-16403.22,1469.8000,65535.0000,4208.2000,2738.4000,0.0000,0.0000,0.0000,
497,610.11,16390.47,-16390.47,1468.2000,65535.0000,4218.6000,2750.4000,0.0000,0.0000,0.0000,
498,610.59,16377.73,-16377.73,1465.0000,65535.0000,4212.2000,2747.2000,0.0000,0.0000,0.0000,
499,611.06,16365.03,-16365.03,1465.6000,65535.0000,4255.8000,2790.2000,0.0000,0.0000,0.0000,
500,611.53,16352.35,-16352.35,1480.6000,65535.0000,4239.4000,2758.8000,0.0000,0.0000,0.0000,
501,612.01,16339.69,-16339.69,1474.8000,65535.0000,4239.0000,2764.2000,0.0000,0.0000,0.0000,
502,612.48,16327.06,-16327.06,1475.6000,65535.0000,4264.0000,2788.4000,0.0000,0.0000,0.0000,
503,612.95,16314.46,-16314.46,1460.8000,65535.0000,4241.6000,2780.8000,0.0000,0.0000,0.0000,
504,613.43,16301.87,-16301.87,1461.0000,65535.0000,4284.0000,2823.0000,0.0000,0.0000,0.0000,
505,613.90,16289.32,-16289.32,1459.8000,65535.0000,4222.4000,2762.6000,0.0000,0.0000,0.0000,
506,614.37,16276.79,-16276.79,1457.8000,65535.0000,4252.8000,2795.0000,0.0000,0.0000,0.0000,
507,614.84,16264.28,-16264.28,1449.2000,65535.0000,4239.4000,2790.2000,0.0000,0.0000,0.0000,
508,615.32,16251.80,-16251.80,1451.8000,65535.0000,4295.8000,2844.0000,0.0000,0.0000,0.0000,
509,615.79,16239.34,-16239.34,1461.0000,65535.0000,4245.6000,2784.6000,0.0000,0.0000,0.0000,
510,616.26,16226.91,-16226.91,1489.8000,65535.0000,4237.6000,2747.8000,0.0000,0.0000,0.0000,
511,616.73,16214.50,-16214.50,1457.6000,65535.0000,4193.0000,2735.4000,0.0000,0.0000,0.0000,
512,617.20,16202.12,-16202.12,1467.4000,65535.0000,4235.4000,2768.0000,0.0000,0.0000,0.0000,
513,617.67,16189.76,-16189.76,1461.0000,65535.0000,4193.0000,2732.0000,0.0000,0.0000,0.0000,
514,618.15,16177.43,-16177.43,1449.2000,65535.0000,4203.8000,2754.6000,0.0000,0.0000,0.0000,
515,618.62,16165.12,-16165.12,1467.0000,65535.0000,4171.4000,2704.4000,0.0000,0.0000,0.0000,
516,619.09,16152.83,-16152.83,1466.6000,65535.0000,4182.2000,2715.6000,0.0000,0.0000,0.0000,
517,619.56,16140.57,-16140.57,1442.6000,65535.0000,4164.0000,2721.4000,0.0000,0.0000,0.0000,
518,620.03,16128.33,-16128.33,1451.6000,65535.0000,4123.8000,2672.2000,0.0000,0.0000,0.0000,
519,620.50,16116.12,-16116.12,1446.0000,65535.0000,4234.6000,2788.6000,0.0000,0.0000,0.0000,
520,620.97,16103.93,-16103.93,1457.2000,65535.0000,4195.8000,2738.6000,0.0000,0.0000,0.0000,
521,621.44,16091.76,-16091.76,1462.0000,65535.0000,4198.4000,2736.4000,0.0000,0.0000,0.0000,
522,621.91,16079.62,-16079.62,1457.6000,65535.0000,4176.6000,2719.0000,0.0000,0.0000,0.0000,
523,622.37,16067.50,-16067.50,1472.6000,65535.0000,4136.6000,2664.0000,0.0000,0.0000,0.0000,
524,622.84,16055.41,-16055.41,1465.0000,65535.0000,4165.8000,2700.8000,0.0000,0.0000,0.0000,
525,623.31,16043.33,-16043.33,1455.0000,65535.0000,4164.2000,2709.2000,0.0000,0.0000,0.0000,
526,623.78,16031.29,-16031.29,1449.2000,65535.0000,4163.4000,2714.2000,0.0000,0.0000,0.0000,
527,624.25,16019.26,-16019.26,1465.2000,65535.0000,4127.6000,2662.4000,0.0000,0.0000,0.0000,
528,624.72,16007.26,-16007.26,1452.8000,65535.0000,4102.6000,2649.8000,0.0000,0.0000,0.0000,
529,625.18,15995.28,-15995.28,1464.6000,65535.0000,4131.6000,2667.0000,0.0000,0.0000,0.0000,
530,625.65,15983.33,-15983.33,1454.0000,65535.0000,4122.2000,2668.2000,0.0000,0.0000,0.0000,
531,626.12,15971.40,-15971.40,1472.0000,65535.0000,4088.2000,2616.2000,0.0000,0.0000,0.0000,
532,626.59,15959.49,-15959.49,1454.0000,65535.0000,4090.6000,2636.6000,0.0000,0.0000,0.0000,
533,627.05,15947.60,-15947.60,1469.0000,65535.0000,4102.8000,2633.8000,0.0000,0.0000,0.0000,
534,627.52,15935.74,-15935.74,1460.0000,65535.0000,4085.4000,2625.4000,0.0000,0.0000,0.0000,
535,627.99,15923.90,-15923.90,1442.6000,65535.0000,4056.2000,2613.6000,0.0000,0.0000,0.0000,
536,628.45,15912.09,-15912.09,1450.8000,65535.0000,4067.6000,2616.8000,0.0000,0.0000,0.0000,
537,628.92,15900.29,-15900.29,1449.2000,65535.0000,4030.0000,2580.8000,0.0000,0.0000,0.0000,
538,629.39,15888.52,-15888.52,1448.0000,65535.0000,4016.8000,2568.8000,0.0000,0.0000,0.0000,
539,629.85,15876.78,-15876.78,1454.4000,65535.0000,4013.2000,2558.8000,0.0000,0.0000,0.0000,
540,630.32,15865.05,-15865.05,1460.2000,65535.0000,3996.6000,2536.4000,0.0000,0.0000,0.0000,
541,630.78,15853.35,-15853.35,1466.0000,65535.0000,4031.2000,2565.2000,0.0000,0.0000,0.0000,
542,631.25,15841.67,-15841.67,1466.8000,65535.0000,3955.4000,2488.6000,0.0000,0.0000,0.0000,
543,631.71,15830.01,-15830.01,1468.8000,65535.0000,3946.4000,2477.6000,0.0000,0.0000,0.0000,
544,632.18,15818.37,-15818.37,1435.8000,65535.0000,3936.6000,2500.8000,0.0000,0.0000,0.0000,
545,632.64,15806.76,-15806.76,1466.4000,65535.0000,3910.4000,2444.0000,0.0000,0.0000,0.0000,
546,633.10,15795.17,-15795.17,1460.8000,65535.0000,3943.6000,2482.8000,0.0000,0.0000,0.0000,
547,633.57,15783.60,-15783.60,1445.8000,65535.0000,3918.4000,2472.6000,0.0000,0.0000,0.0000,
548,634.03,15772.06,-15772.06,1445.6000,65535.0000,3937.6000,2492.0000,0.0000,0.0000,0.0000,
549,634.50,15760.53,-15760.53,1440.8000,65535.0000,3934.4000,2493.6000,0.0000,0.0000,0.0000,
550,634.96,15749.03,-15749.03,1444.2000,65535.0000,3860.2000,2416.0000,0.0000,0.0000,0.0000,
551,635.42,15737.55,-15737.55,1458.2000,65535.0000,3916.4000,2458.2000,0.0000,0.0000,0.0000,
552,635.89,15726.09,-15726.09,1458.6000,65535.0000,3898.0000,2439.4000,0.0000,0.0000,0.0000,
553,636.35,15714.65,-15714.65,1454.2000,65535.0000,3862.6000,2408.4000,0.0000,0.0000,0.0000,
554,636.81,15703.24,-15703.24,1470.8000,65535.0000,3905.4000,2434.6000,0.0000,0.0000,0.0000,
555,637.27,15691.85,-15691.85,1455.8000,65535.0000,3870.8000,2415.0000,0.0000,0.0000,0.0000,
556,637.74,15680.47,-15680.47,1445.4000,65535.0000,3804.8000,2359.4000,0.0000,0.0000,0.0000,
557,638.20,15669.12,-15669.12,1439.4000,65535.0000,3848.6000,2409.2000,0.0000,0.0000,0.0000,
558,638.66,15657.80,-15657.80,1451.4000,65535.0000,3819.0000,2367.6000,0.0000,0.0000,0.0000,
559,639.12,15646.49,-15646.49,1452.2000,65535.0000,3801.4000,2349.2000,0.0000,0.0000,0.0000,
560,639.58,15635.20,-15635.20,1461.2000,65535.0000,3789.2000,2328.0000,0.0000,0.0000,0.0000,
561,640.04,15623.94,-15623.94,1450.8000,65535.0000,3808.6000,2357.8000,0.0000,0.0000,0.0000,
562,640.50,15612.70,-15612.70,1467.2000,65535.0000,3791.8000,2324.6000,0.0000,0.0000,0.0000,
563,640.97,15601.48,-15601.48,1471.2000,65535.0000,3749.8000,2278.6000,0.0000,0.0000,0.0000,
564,641.43,15590.28,-15590.28,1451.8000,65535.0000,3754.2000,2302.4000,0.0000,0.0000,0.0000,
565,641.89,15579.10,-15579.10,1450.6000,65535.0000,3735.0000,2284.4000,0.0000,0.0000,0.0000,
566,642.35,15567.94,-15567.94,1464.6000,65535.0000,3721.6000,2257.0000,0.0000,0.0000,0.0000,
567,642.81,15556.80,-15556.80,1455.8000,65535.0000,3708.8000,2253.0000,0.0000,0.0000,0.0000,
568,643.27,15545.69,-15545.69,1437.6000,65535.0000,3732.4000,2294.8000,0.0000,0.0000,0.0000,
569,643.72,15534.59,-15534.59,1444.4000,65535.0000,3731.8000,2287.4000,0.0000,0.0000,0.0000,
570,644.18,15523.52,-15523.52,1468.6000,65535.0000,3706.6000,2238.0000,0.0000,0.0000,0.0000,
571,644.64,15512.46,-15512.46,1449.8000,65535.0000,3697.2000,2247.4000,0.0000,0.0000,0.0000,
572,645.10,15501.43,-15501.43,1451.4000,65535.0000,3694.8000,2243.4000,0.0000,0.0000,0.0000,
573,645.56,15490.42,-15490.42,1453.2000,65535.0000,3697.8000,2244.6000,0.0000,0.0000,0.0000,
574,646.02,15479.43,-15479.43,1450.4000,65535.0000,3706.0000,2255.6000,0.0000,0.0000,0.0000,
575,646.48,15468.46,-15468.46,1442.8000,65535.0000,3696.6000,2253.8000,0.0000,0.0000,0.0000,
576,646.93,15457.51,-15457.51,1428.4000,65535.0000,3673.2000,2244.8000,0.0000,0.0000,0.0000,
577,647.39,15446.58,-15446.58,1456.8000,65535.0000,3722.6000,2265.8000,0.0000,0.0000,0.0000,
578,647.85,15435.67,-15435.67,1466.0000,65535.0000,3664.4000,2198.4000,0.0000,0.0000,0.0000,
579,648.31,15424.78,-15424.78,1444.0000,65535.0000,3675.6000,2231.6000,0.0000,0.0000,0.0000,
580,648.76,15413.91,-15413.91,1441.4000,65535.0000,3634.8000,2193.4000,0.0000,0.0000,0.0000,
581,649.22,15403.07,-15403.07,1451.4000,65535.0000,3647.0000,2195.6000,0.0000,0.0000,0.0000,
582,649.68,15392.24,-15392.24,1444.6000,65535.0000,3675.4000,2230.8000,0.0000,0.0000,0.0000,
583,650.13,15381.43,-15381.43,1431.0000,65535.0000,3695.0000,2264.0000,0.0000,0.0000,0.0000,
584,650.59,15370.64,-15370.64,1414.4000,65535.0000,3703.6000,2289.2000,0.0000,0.0000,0.0000,
585,651.05,15359.88,-15359.88,1456.0000,65535.0000,3657.4000,2201.4000,0.0000,0.0000,0.0000,
586,651.50,15349.13,-15349.13,1453.6000,65535.0000,3678.2000,2224.6000,0.0000,0.0000,0.0000,
587,651.96,15338.40,-15338.40,1463.4000,65535.0000,3662.4000,2199.0000,0.0000,0.0000,0.0000,
588,652.41,15327.69,-15327.69,1463.2000,65535.0000,3657.4000,2194.2000,0.0000,0.0000,0.0000,
589,652.87,15317.01,-15317.01,1471.6000,65535.0000,3674.0000,2202.4000,0.0000,0.0000,0.0000,
590,653.32,15306.34,-15306.34,1450.8000,65535.0000,3640.8000,2190.0000,0.0000,0.0000,0.0000,
591,653.78,15295.69,-15295.69,1412.8000,65535.0000,3679.4000,2266.6000,0.0000,0.0000,0.0000,
592,654.23,15285.06,-15285.06,1455.6000,65535.0000,3661.8000,2206.2000,0.0000,0.0000,0.0000,
593,654.69,15274.45,-15274.45,1439.2000,65535.0000,3677.2000,2238.0000,0.0000,0.0000,0.0000,
594,655.14,15263.86,-15263.86,1463.4000,65535.0000,3650.2000,2186.8000,0.0000,0.0000,0.0000,
595,655.60,15253.29,-15253.29,1441.2000,65535.0000,3694.4000,2253.2000,0.0000,0.0000,0.0000,
596,656.05,15242.74,-15242.74,1450.2000,65535.0000,3705.6000,2255.4000,0.0000,0.0000,0.0000,
597,656.50,15232.21,-15232.21,1475.0000,65535.0000,3671.2000,2196.2000,0.0000,0.0000,0.0000,
598,656.96,15221.70,-15221.70,1437.6000,65535.0000,3702.4000,2264.8000,0.0000,0.0000,0.0000,
599,657.41,15211.21,-15211.21,1450.8000,65535.0000,3644.4000,2193.6000,0.0000,0.0000,0.0000,
600,657.86,15200.74,-15200.74,1449.8000,65535.0000,3659.4000,2209.6000,0.0000,0.0000,0.0000,
601,658.32,15190.29,-15190.29,1457.6000,65535.0000,3727.4000,2269.8000,0.0000,0.0000,0.0000,
602,658.77,15179.85,-15179.85,1479.4000,65535.0000,3723.6000,2244.2000,0.0000,0.0000,0.0000,
603,659.22,15169.44,-15169.44,1463.6000,65535.0000,3705.0000,2241.4000,0.0000,0.0000,0.0000,
604,659.67,15159.04,-15159.04,1476.0000,65535.0000,3711.2000,2235.2000,0.0000,0.0000,0.0000,
605,660.12,15148.66,-15148.66,1461.6000,65535.0000,3728.6000,2267.0000,0.0000,0.0000,0.0000,
606,660.58,15138.31,-15138.31,1453.6000,65535.0000,3744.2000,2290.6000,0.0000,0.0000,0.0000,
607,661.03,15127.97,-15127.97,1449.8000,65535.0000,3752.0000,2302.2000,0.0000,0.0000,0.0000,
608,661.48,15117.65,-15117.65,1438.8000,65535.0000,3715.2000,2276.4000,0.0000,0.0000,0.0000,
609,661.93,15107.35,-15107.35,1451.4000,65535.0000,3740.8000,2289.4000,0.0000,0.0000,0.0000,
610,662.38,15097.07,-15097.07,1465.4000,65535.0000,3759.4000,2294.0000,0.0000,0.0000,0.0000,
611,662.83,15086.80,-15086.80,1470.6000,65535.0000,3750.4000,2279.8000,0.0000,0.0000,0.0000,
612,663.28,15076.56,-15076.56,1461.6000,65535.0000,3761.4000,2299.8000,0.0000,0.0000,0.0000,
613,663.73,15066.33,-15066.33,1468.8000,65535.0000,3752.4000,2283.6000,0.0000,0.0000,0.0000,
614,664.18,15056.12,-15056.12,1459.8000,65535.0000,3781.0000,2321.2000,0.0000,0.0000,0.0000,
615,664.63,15045.93,-15045.93,1430.6000,65535.0000,3777.4000,2346.8000,0.0000,0.0000,0.0000,
616,665.08,15035.76,-15035.76,1471.0000,65535.0000,3790.8000,2319.8000,0.0000,0.0000,0.0000,
617,665.53,15025.61,-15025.61,1486.6000,65535.0000,3780.2000,2293.6000,0.0000,0.0000,0.0000,
618,665.98,15015.48,-15015.48,1447.4000,65535.0000,3823.4000,2376.0000,0.0000,0.0000,0.0000,
619,666.43,15005.36,-15005.36,1445.6000,65535.0000,3853.4000,2407.8000,0.0000,0.0000,0.0000,
620,666.88,14995.27,-14995.27,1449.6000,65535.0000,3845.8000,2396.2000,0.0000,0.0000,0.0000,
621,667.33,14985.19,-14985.19,1468.2000,65535.0000,3839.0000,2370.8000,0.0000,0.0000,0.0000,
622,667.77,14975.13,-14975.13,1446.0000,65535.0000,3847.6000,2401.6000,0.0000,0.0000,0.0000,
623,668.22,14965.09,-14965.09,1466.4000,65535.0000,3863.0000,2396.6000,0.0000,0.0000,0.0000,
624,668.67,14955.06,-14955.06,1470.0000,65535.0000,3844.4000,2374.4000,0.0000,0.0000,0.0000,
625,669.12,14945.06,-14945.06,1452.0000,65535.0000,3887.8000,2435.8000,0.0000,0.0000,0.0000,
626,669.56,14935.07,-14935.07,1443.6000,65535.0000,3924.6000,2481.0000,0.0000,0.0000,0.0000,
627,670.01,14925.10,-14925.10,1466.6000,65535.0000,3911.8000,2445.2000,0.0000,0.0000,0.0000,
628,670.46,14915.15,-14915.15,1454.0000,65535.0000,3882.0000,2428.0000,0.0000,0.0000,0.0000,
629,670.91,14905.22,-14905.22,1439.4000,65535.0000,3944.0000,2504.6000,0.0000,0.0000,0.0000,
630,671.35,14895.30,-14895.30,1444.8000,65535.0000,3932.2000,2487.4000,0.0000,0.0000,0.0000,
631,671.80,14885.40,-14885.40,1446.0000,65535.0000,3914.8000,2468.8000,0.0000,0.0000,0.0000,
632,672.25,14875.52,-14875.52,1457.6000,65535.0000,3923.6000,2466.0000,0.0000,0.0000,0.0000,
633,672.69,14865.66,-14865.66,1471.2000,65535.0000,3899.2000,2428.0000,0.0000,0.0000,0.0000,
634,673.14,14855.82,-14855.82,1465.0000,65535.0000,3939.2000,2474.2000,0.0000,0.0000,0.0000,
635,673.58,14845.99,-14845.99,1468.0000,65535.0000,3963.6000,2495.6000,0.0000,0.0000,0.0000,
636,674.03,14836.18,-14836.18,1453.8000,65535.0000,3920.4000,2466.6000,0.0000,0.0000,0.0000,
637,674.47,14826.39,-14826.39,1462.0000,65535.0000,3946.4000,2484.4000,0.0000,0.0000,0.0000,
638,674.92,14816.61,-14816.61,1452.6000,65535.0000,3929.2000,2476.6000,0.0000,0.0000,0.0000,
639,675.36,14806.86,-14806.86,1463.6000,65535.0000,3940.6000,2477.0000,0.0000,0.0000,0.0000,
640,675.81,14797.12,-14797.12,1447.6000,65535.0000,3974.0000,2526.4000,0.0000,0.0000,0.0000,
641,676.25,14787.40,-14787.40,1463.4000,65535.0000,4003.4000,2540.0000,0.0000,0.0000,0.0000,
642,676.70,14777.69,-14777.69,1452.0000,65535.0000,4007.2000,2555.2000,0.0000,0.0000,0.0000,
643,677.14,14768.01,-14768.01,1446.0000,65535.0000,4047.2000,2601.2000,0.0000,0.0000,0.0000,
644,677.58,14758.34,-14758.34,1446.6000,65535.0000,3980.8000,2534.2000,0.0000,0.0000,0.0000,
645,678.03,14748.68,-14748.68,1465.2000,65535.0000,4008.0000,2542.8000,0.0000,0.0000,0.0000,
646,678.47,14739.05,-14739.05,1467.2000,65535.0000,4051.6000,2584.4000,0.0000,0.0000,0.0000,
647,678.91,14729.43,-14729.43,1439.2000,65535.0000,4026.8000,2587.6000,0.0000,0.0000,0.0000,
648,679.36,14719.83,-14719.83,1463.6000,65535.0000,4039.4000,2575.8000,0.0000,0.0000,0.0000,
649,679.80,14710.24,-14710.24,1465.8000,65535.0000,4015.0000,2549.2000,0.0000,0.0000,0.0000,
650,680.24,14700.68,-14700.68,1457.4000,65535.0000,4046.0000,2588.6000,0.0000,0.0000,0.0000,
651,680.68,14691.13,-14691.13,1450.8000,65535.0000,4046.2000,2595.4000,0.0000,0.0000,0.0000,
652,681.12,14681.59,-14681.59,1460.8000,65535.0000,4092.6000,2631.8000,0.0000,0.0000,0.0000,
653,681.57,14672.08,-14672.08,1446.4000,65535.0000,4080.8000,2634.4000,0.0000,0.0000,0.0000,
654,682.01,14662.58,-14662.58,1419.0000,65535.0000,4093.8000,2674.8000,0.0000,0.0000,0.0000,
655,682.45,14653.09,-14653.09,1453.6000,65535.0000,4109.2000,2655.6000,0.0000,0.0000,0.0000,
656,682.89,14643.63,-14643.63,1459.0000,65535.0000,4148.4000,2689.4000,0.0000,0.0000,0.0000,
657,683.33,14634.18,-14634.18,1438.2000,65535.0000,4144.0000,2705.8000,0.0000,0.0000,0.0000,
658,683.77,14624.75,-14624.75,1450.2000,65535.0000,4138.4000,2688.2000,0.0000,0.0000,0.0000,
659,684.21,14615.33,-14615.33,1453.8000,65535.0000,4162.4000,2708.6000,0.0000,0.0000,0.0000,
660,684.65,14605.93,-14605.93,1450.4000,65535.0000,4125.2000,2674.8000,0.0000,0.0000,0.0000,
661,685.09,14596.55,-14596.55,1463.4000,65535.0000,4188.8000,2725.4000,0.0000,0.0000,0.0000,
662,685.53,14587.18,-14587.18,1459.2000,65535.0000,4141.2000,2682.0000,0.0000,0.0000,0.0000,
663,685.97,14577.83,-14577.83,1471.0000,65535.0000,4178.8000,2707.8000,0.0000,0.0000,0.0000,
664,686.41,14568.50,-14568.50,1462.6000,65535.0000,4168.0000,2705.4000,0.0000,0.0000,0.0000,
665,686.85,14559.18,-14559.18,1446.2000,65535.0000,4188.2000,2742.0000,0.0000,0.0000,0.0000,
666,687.29,14549.88,-14549.88,1467.4000,65535.0000,4182.6000,2715.2000,0.0000,0.0000,0.0000,
667,687.73,14540.60,-14540.60,1434.6000,65535.0000,4230.4000,2795.8000,0.0000,0.0000,0.0000,
668,688.17,14531.33,-14531.33,1468.6000,65535.0000,4228.4000,2759.8000,0.0000,0.0000,0.0000,
669,688.61,14522.08,-14522.08,1456.2000,65535.0000,4181.0000,2724.8000,0.0000,0.0000,0.0000,
670,689.04,14512.84,-14512.84,1445.8000,65535.0000,4160.6000,2714.8000,0.0000,0.0000,0.0000,
671,689.48,14503.63,-14503.63,1440.4000,65535.0000,4215.6000,2775.2000,0.0000,0.0000,0.0000,
672,689.92,14494.42,-14494.42,1445.4000,65535.0000,4227.8000,2782.4000,0.0000,0.0000,0.0000,
673,690.36,14485.24,-14485.24,1474.4000,65535.0000,4171.0000,2696.6000,0.0000,0.0000,0.0000,
674,690.80,14476.06,-14476.06,1440.0000,65535.0000,4182.4000,2742.4000,0.0000,0.0000,0.0000,
675,691.23,14466.91,-14466.91,1452.4000,65535.0000,4210.0000,2757.6000,0.0000,0.0000,0.0000,
676,691.67,14457.77,-14457.77,1462.8000,65535.0000,4193.2000,2730.4000,0.0000,0.0000,0.0000,
677,692.11,14448.65,-14448.65,1447.6000,65535.0000,4205.6000,2758.0000,0.0000,0.0000,0.0000,
678,692.54,14439.54,-14439.54,1483.0000,65535.0000,4232.0000,2749.0000,0.0000,0.0000,0.0000,
679,692.98,14430.45,-14430.45,1449.6000,65535.0000,4249.0000,2799.4000,0.0000,0.0000,0.0000,
680,693.42,14421.37,-14421.37,1426.2000,65535.0000,4200.8000,2774.6000,0.0000,0.0000,0.0000,
681,693.85,14412.31,-14412.31,1431.0000,65535.0000,4220.0000,2789.0000,0.0000,0.0000,0.0000,
682,694.29,14403.27,-14403.27,1478.0000,65535.0000,4191.4000,2713.4000,0.0000,0.0000,0.0000,
683,694.72,14394.24,-14394.24,1469.6000,65535.0000,4275.8000,2806.2000,0.0000,0.0000,0.0000,
684,695.16,14385.23,-14385.23,1463.4000,65535.0000,4209.4000,2746.0000,0.0000,0.0000,0.0000,
685,695.59,14376.23,-14376.23,1470.4000,65535.0000,4209.2000,2738.8000,0.0000,0.0000,0.0000,
686,696.03,14367.25,-14367.25,1456.4000,65535.0000,4175.0000,2718.6000,0.0000,0.0000,0.0000,
687,696.46,14358.29,-14358.29,1431.4000,65535.0000,4168.0000,2736.6000,0.0000,0.0000,0.0000,
688,696.90,14349.34,-14349.34,1460.4000,65535.0000,4128.6000,2668.2000,0.0000,0.0000,0.0000,
689,697.33,14340.40,-14340.40,1474.4000,65535.0000,4129.8000,2655.4000,0.0000,0.0000,0.0000,
690,697.76,14331.48,-14331.48,1449.6000,65535.0000,4146.2000,2696.6000,0.0000,0.0000,0.0000,
691,698.20,14322.58,-14322.58,1449.2000,65535.0000,4207.8000,2758.6000,0.0000,0.0000,0.0000,
692,698.63,14313.69,-14313.69,1443.6000,65535.0000,4174.4000,2730.8000,0.0000,0.0000,0.0000,
693,699.07,14304.82,-14304.82,1465.6000,65535.0000,4188.6000,2723.0000,0.0000,0.0000,0.0000,
694,699.50,14295.96,-14295.96,1445.6000,65535.0000,4195.2000,2749.6000,0.0000,0.0000,0.0000,
695,699.93,14287.12,-14287.12,1465.0000,65535.0000,4257.6000,2792.6000,0.0000,0.0000,0.0000,
696,700.36,14278.29,-14278.29,1467.4000,65535.0000,4184.8000,2717.4000,0.0000,0.0000,0.0000,
697,700.80,14269.48,-14269.48,1472.0000,65535.0000,4184.2000,2712.2000,0.0000,0.0000,0.0000,
698,701.23,14260.68,-14260.68,1452.4000,65535.0000,4147.0000,2694.6000,0.0000,0.0000,0.0000,
699,701.66,14251.90,-14251.90,1439.8000,65535.0000,4153.8000,2714.0000,0.0000,0.0000,0.0000,
700,702.09,14243.13,-14243.13,1457.0000,65535.0000,4182.8000,2725.8000,0.0000,0.0000,0.0000,
701,702.52,14234.38,-14234.38,1443.2000,65535.0000,4203.0000,2759.8000,0.0000,0.0000,0.0000,
702,702.96,14225.64,-14225.64,1432.8000,65535.0000,4176.0000,2743.2000,0.0000,0.0000,0.0000,
703,703.39,14216.92,-14216.92,1442.6000,65535.0000,4210.2000,2767.6000,0.0000,0.0000,0.0000,
704,703.82,14208.21,-14208.21,1466.8000,65535.0000,4222.8000,2756.0000,0.0000,0.0000,0.0000,
705,704.25,14199.52,-14199.52,1458.6000,65535.0000,4174.2000,2715.6000,0.0000,0.0000,0.0000,
706,704.68,14190.84,-14190.84,1471.6000,65535.0000,4156.8000,2685.2000,0.0000,0.0000,0.0000,
707,705.11,14182.18,-14182.18,1451.8000,65535.0000,4158.2000,2706.4000,0.0000,0.0000,0.0000,
708,705.54,14173.53,-14173.53,1445.2000,65535.0000,4165.8000,2720.6000,0.0000,0.0000,0.0000,
709,705.97,14164.90,-14164.90,1449.2000,65535.0000,4173.4000,2724.2000,0.0000,0.0000,0.0000,
710,706.40,14156.28,-14156.28,1448.2000,65535.0000,4178.6000,2730.4000,0.0000,0.0000,0.0000,
711,706.83,14147.68,-14147.68,1459.0000,65535.0000,4169.8000,2710.8000,0.0000,0.0000,0.0000,
712,707.26,14139.09,-14139.09,1453.2000,65535.0000,4178.6000,2725.4000,0.0000,0.0000,0.0000,
713,707.69,14130.52,-14130.52,1457.8000,65535.0000,4084.6000,2626.8000,0.0000,0.0000,0.0000,
714,708.12,14121.96,-14121.96,1451.4000,65535.0000,4107.2000,2655.8000,0.0000,0.0000,0.0000,
715,708.55,14113.42,-14113.42,1464.6000,65535.0000,4141.6000,2677.0000,0.0000,0.0000,0.0000,
716,708.97,14104.88,-14104.88,1472.6000,65535.0000,4172.6000,2700.0000,0.0000,0.0000,0.0000,
717,709.40,14096.37,-14096.37,1456.8000,65535.0000,4169.4000,2712.6000,0.0000,0.0000,0.0000,
718,709.83,14087.87,-14087.87,1464.8000,65535.0000,4136.2000,2671.4000,0.0000,0.0000,0.0000,
719,710.26,14079.38,-14079.38,1462.6000,65535.0000,4082.6000,2620.0000,0.0000,0.0000,0.0000,
720,710.69,14070.91,-14070.91,1459.0000,65535.0000,4152.8000,2693.8000,0.0000,0.0000,0.0000,
721,711.11,14062.45,-14062.45,1448.2000,65535.0000,4119.2000,2671.0000,0.0000,0.0000,0.0000,
722,711.54,14054.01,-14054.01,1460.4000,65535.0000,4106.8000,2646.4000,0.0000,0.0000,0.0000,
723,711.97,14045.58,-14045.58,1467.8000,65535.0000,4070.8000,2603.0000,0.0000,0.0000,0.0000,
724,712.39,14037.16,-14037.16,1470.0000,65535.0000,4077.8000,2607.8000,0.0000,0.0000,0.0000,
725,712.82,14028.76,-14028.76,1475.6000,65535.0000,4109.6000,2634.0000,0.0000,0.0000,0.0000,
726,713.25,14020.38,-14020.38,1469.6000,65535.0000,4134.8000,2665.2000,0.0000,0.0000,0.0000,
727,713.67,14012.00,-14012.00,1445.8000,65535.0000,4142.4000,2696.6000,0.0000,0.0000,0.0000,
728,714.10,14003.64,-14003.64,1455.6000,65535.0000,4149.6000,2694.0000,0.0000,0.0000,0.0000,
729,714.53,13995.30,-13995.30,1448.4000,65535.0000,4123.6000,2675.2000,0.0000,0.0000,0.0000,
730,714.95,13986.97,-13986.97,1437.4000,65535.0000,4128.4000,2691.0000,0.0000,0.0000,0.0000,
731,715.38,13978.65,-13978.65,1480.4000,65535.0000,4107.0000,2626.6000,0.0000,0.0000,0.0000,
732,715.80,13970.35,-13970.35,1471.6000,65535.0000,4161.4000,2689.8000,0.0000,0.0000,0.0000,
733,716.23,13962.06,-13962.06,1453.6000,65535.0000,4117.0000,2663.4000,0.0000,0.0000,0.0000,
734,716.65,13953.79,-13953.79,1455.4000,65535.0000,4155.6000,2700.2000,0.0000,0.0000,0.0000,
735,717.08,13945.53,-13945.53,1434.6000,65535.0000,4142.4000,2707.8000,0.0000,0.0000,0.0000,
736,717.50,13937.28,-13937.28,1487.8000,65535.0000,4118.2000,2630.4000,0.0000,0.0000,0.0000,
737,717.92,13929.05,-13929.05,1473.2000,65535.0000,4083.0000,2609.8000,0.0000,0.0000,0.0000,
738,718.35,13920.83,-13920.83,1439.6000,65535.0000,4106.6000,2667.0000,0.0000,0.0000,0.0000,
739,718.77,13912.63,-13912.63,1467.6000,65535.0000,4177.4000,2709.8000,0.0000,0.0000,0.0000,
740,719.20,13904.43,-13904.43,1462.6000,65535.0000,4107.0000,2644.4000,0.0000,0.0000,0.0000,
741,719.62,13896.26,-13896.26,1441.2000,65535.0000,4149.8000,2708.6000,0.0000,0.0000,0.0000,
742,720.04,13888.09,-13888.09,1459.4000,65535.0000,4160.2000,2700.8000,0.0000,0.0000,0.0000,
743,720.46,13879.94,-13879.94,1440.6000,65535.0000,4088.2000,2647.6000,0.0000,0.0000,0.0000,
744,720.89,13871.81,-13871.81,1440.0000,65535.0000,4104.2000,2664.2000,0.0000,0.0000,0.0000,
745,721.31,13863.68,-13863.68,1473.2000,65535.0000,4103.0000,2629.8000,0.0000,0.0000,0.0000,
746,721.73,13855.57,-13855.57,1438.0000,65535.0000,4099.8000,2661.8000,0.0000,0.0000,0.0000,
747,722.15,13847.48,-13847.48,1447.2000,65535.0000,4127.4000,2680.2000,0.0000,0.0000,0.0000,
748,722.57,13839.39,-13839.39,1452.2000,65535.0000,4151.2000,2699.0000,0.0000,0.0000,0.0000,
749,723.00,13831.33,-13831.33,1456.8000,65535.0000,4116.6000,2659.8000,0.0000,0.0000,0.0000,
750,723.42,13823.27,-13823.27,1447.2000,65535.0000,4091.0000,2643.8000,0.0000,0.0000,0.0000,
751,723.84,13815.23,-13815.23,1471.8000,65535.0000,4099.8000,2628.0000,0.0000,0.0000,0.0000,
752,724.26,13807.20,-13807.20,1485.8000,65535.0000,4086.4000,2600.6000,0.0000,0.0000,0.0000,
753,724.68,13799.18,-13799.18,1446.4000,65535.0000,4045.0000,2598.6000,0.0000,0.0000,0.0000,
754,725.10,13791.18,-13791.18,1448.0000,65535.0000,4044.0000,2596.0000,0.0000,0.0000,0.0000,
755,725.52,13783.19,-13783.19,1454.2000,65535.0000,4135.0000,2680.8000,0.0000,0.0000,0.0000,
756,725.94,13775.22,-13775.22,1451.0000,65535.0000,4123.4000,2672.4000,0.0000,0.0000,0.0000,
757,726.36,13767.26,-13767.26,1458.6000,65535.0000,4102.6000,2644.0000,0.0000,0.0000,0.0000,
758,726.78,13759.31,-13759.31,1456.0000,65535.0000,4113.0000,2657.0000,0.0000,0.0000,0.0000,
759,727.20,13751.37,-13751.37,1451.8000,65535.0000,4055.6000,2603.8000,0.0000,0.0000,0.0000,
760,727.62,13743.45,-13743.45,1495.4000,65535.0000,4055.2000,2559.8000,0.0000,0.0000,0.0000,
761,728.04,13735.54,-13735.54,1450.8000,65535.0000,4103.0000,2652.2000,0.0000,0.0000,0.0000,
762,728.46,13727.64,-13727.64,1440.0000,65535.0000,4109.2000,2669.2000,0.0000,0.0000,0.0000,
763,728.88,13719.76,-13719.76,1455.2000,65535.0000,4106.8000,2651.6000,0.0000,0.0000,0.0000,
764,729.29,13711.89,-13711.89,1460.0000,65535.0000,4070.6000,2610.6000,0.0000,0.0000,0.0000,
765,729.71,13704.03,-13704.03,1442.0000,65535.0000,4098.6000,2656.6000,0.0000,0.0000,0.0000,
766,730.13,13696.19,-13696.19,1432.0000,65535.0000,4083.6000,2651.6000,0.0000,0.0000,0.0000,
767,730.55,13688.35,-13688.35,1445.6000,65535.0000,4105.2000,2659.6000,0.0000,0.0000,0.0000,
768,730.97,13680.53,-13680.53,1433.8000,65535.0000,4123.4000,2689.6000,0.0000,0.0000,0.0000,
769,731.38,13672.73,-13672.73,1451.0000,65535.0000,4106.6000,2655.6000,0.0000,0.0000,0.0000,
770,731.80,13664.94,-13664.94,1437.8000,65535.0000,4129.6000,2691.8000,0.0000,0.0000,0.0000,
771,732.22,13657.16,-13657.16,1464.4000,65535.0000,4103.2000,2638.8000,0.0000,0.0000,0.0000,
772,732.63,13649.39,-13649.39,1435.2000,65535.0000,4114.8000,2679.6000,0.0000,0.0000,0.0000,
773,733.05,13641.63,-13641.63,1453.6000,65535.0000,4130.6000,2677.0000,0.0000,0.0000,0.0000,
774,733.47,13633.89,-13633.89,1453.6000,65535.0000,4122.4000,2668.8000,0.0000,0.0000,0.0000,
775,733.88,13626.16,-13626.16,1441.4000,65535.0000,4050.0000,2608.6000,0.0000,0.0000,0.0000,
776,734.30,13618.45,-13618.45,1451.8000,65535.0000,4099.4000,2647.6000,0.0000,0.0000,0.0000,
777,734.71,13610.74,-13610.74,1444.8000,65535.0000,4125.0000,2680.2000,0.0000,0.0000,0.0000,
778,735.13,13603.05,-13603.05,1447.0000,65535.0000,4102.4000,2655.4000,0.0000,0.0000,0.0000,
779,735.54,13595.37,-13595.37,1453.4000,65535.0000,4070.6000,2617.2000,0.0000,0.0000,0.0000,
780,735.96,13587.71,-13587.71,1466.6000,65535.0000,4096.4000,2629.8000,0.0000,0.0000,0.0000,
781,736.37,13580.05,-13580.05,1449.2000,65535.0000,4116.6000,2667.4000,0.0000,0.0000,0.0000,
782,736.79,13572.41,-13572.41,1444.6000,65535.0000,4089.0000,2644.4000,0.0000,0.0000,0.0000,
783,737.20,13564.78,-13564.78,1453.2000,65535.0000,4092.4000,2639.2000,0.0000,0.0000,0.0000,
784,737.62,13557.17,-13557.17,1431.4000,65535.0000,4087.0000,2655.6000,0.0000,0.0000,0.0000,
785,738.03,13549.56,-13549.56,1456.2000,65535.0000,4089.8000,2633.6000,0.0000,0.0000,0.0000,
786,738.44,13541.97,-13541.97,1467.4000,65535.0000,4114.0000,2646.6000,0.0000,0.0000,0.0000,
787,738.86,13534.39,-13534.39,1438.8000,65535.0000,4131.2000,2692.4000,0.0000,0.0000,0.0000,
788,739.27,13526.83,-13526.83,1460.6000,65535.0000,4143.2000,2682.6000,0.0000,0.0000,0.0000,
789,739.68,13519.27,-13519.27,1435.8000,65535.0000,4125.0000,2689.2000,0.0000,0.0000,0.0000,
790,740.10,13511.73,-13511.73,1452.6000,65535.0000,4138.0000,2685.4000,0.0000,0.0000,0.0000,
791,740.51,13504.20,-13504.20,1438.8000,65535.0000,4117.8000,2679.0000,0.0000,0.0000,0.0000,
792,740.92,13496.69,-13496.69,1457.8000,65535.0000,4103.4000,2645.6000,0.0000,0.0000,0.0000,
793,741.33,13489.18,-13489.18,1446.6000,65535.0000,4083.2000,2636.6000,0.0000,0.0000,0.0000,
794,741.75,13481.69,-13481.69,1438.0000,65535.0000,4078.6000,2640.6000,0.0000,0.0000,0.0000,
795,742.16,13474.21,-13474.21,1459.8000,65535.0000,4123.2000,2663.4000,0.0000,0.0000,0.0000,
796,742.57,13466.74,-13466.74,1464.0000,65535.0000,4134.8000,2670.8000,0.0000,0.0000,0.0000,
797,742.98,13459.28,-13459.28,1434.8000,65535.0000,4081.6000,2646.8000,0.0000,0.0000,0.0000,
798,743.39,13451.84,-13451.84,1443.0000,65535.0000,4142.8000,2699.8000,0.0000,0.0000,0.0000,
799,743.80,13444.40,-13444.40,1454.6000,65535.0000,4079.6000,2625.0000,0.0000,0.0000,0.0000,
800,744.21,13436.98,-13436.98,1473.0000,65535.0000,4115.6000,2642.6000,0.0000,0.0000,0.0000,
801,744.63,13429.58,-13429.58,1443.0000,65535.0000,4084.2000,2641.2000,0.0000,0.0000,0.0000,
802,745.04,13422.18,-13422.18,1443.4000,65535.0000,4076.2000,2632.8000,0.0000,0.0000,0.0000,
803,745.45,13414.79,-13414.79,1457.6000,65535.0000,4064.4000,2606.8000,0.0000,0.0000,0.0000,
804,745.86,13407.42,-13407.42,1443.4000,65535.0000,4097.2000,2653.8000,0.0000,0.0000,0.0000,
805,746.27,13400.06,-13400.06,1420.0000,65535.0000,4075.2000,2655.2000,0.0000,0.0000,0.0000,
806,746.67,13392.71,-13392.71,1449.8000,65535.0000,4051.2000,2601.4000,0.0000,0.0000,0.0000,
807,747.08,13385.38,-13385.38,1445.8000,65535.0000,4089.4000,2643.6000,0.0000,0.0000,0.0000,
808,747.49,13378.05,-13378.05,1444.8000,65535.0000,4087.4000,2642.6000,0.0000,0.0000,0.0000,
809,747.90,13370.74,-13370.74,1463.6000,65535.0000,4072.6000,2609.0000,0.0000,0.0000,0.0000,
810,748.31,13363.44,-13363.44,1448.6000,65535.0000,4063.0000,2614.4000,0.0000,0.0000,0.0000,
811,748.72,13356.15,-13356.15,1435.2000,65535.0000,4068.6000,2633.4000,0.0000,0.0000,0.0000,
812,749.13,13348.87,-13348.87,1469.4000,65535.0000,4041.0000,2571.6000,0.0000,0.0000,0.0000,
813,749.54,13341.60,-13341.60,1440.0000,65535.0000,4027.8000,2587.8000,0.0000,0.0000,0.0000,
814,749.94,13334.35,-13334.35,1476.0000,65535.0000,4031.2000,2555.2000,0.0000,0.0000,0.0000,
815,750.35,13327.10,-13327.10,1447.8000,65535.0000,4022.6000,2574.8000,0.0000,0.0000,0.0000,
816,750.76,13319.87,-13319.87,1464.4000,65535.0000,4023.2000,2558.8000,0.0000,0.0000,0.0000,
817,751.17,13312.65,-13312.65,1467.0000,65535.0000,4065.6000,2598.6000,0.0000,0.0000,0.0000,
818,751.57,13305.45,-13305.45,1479.8000,65535.0000,4061.0000,2581.2000,0.0000,0.0000,0.0000,
819,751.98,13298.25,-13298.25,1439.0000,65535.0000,4058.6000,2619.6000,0.0000,0.0000,0.0000,
820,752.39,13291.06,-13291.06,1462.8000,65535.0000,4040.4000,2577.6000,0.0000,0.0000,0.0000,
821,752.79,13283.89,-13283.89,1470.0000,65535.0000,4037.8000,2567.8000,0.0000,0.0000,0.0000,
822,753.20,13276.73,-13276.73,1474.4000,65535.0000,4030.2000,2555.8000,0.0000,0.0000,0.0000,
823,753.60,13269.58,-13269.58,1450.2000,65535.0000,4054.0000,2603.8000,0.0000,0.0000,0.0000,
824,754.01,13262.44,-13262.44,1431.8000,65535.0000,3998.8000,2567.0000,0.0000,0.0000,0.0000,
825,754.41,13255.31,-13255.31,1457.2000,65535.0000,4016.2000,2559.0000,0.0000,0.0000,0.0000,
826,754.82,13248.19,-13248.19,1458.4000,65535.0000,4059.8000,2601.4000,0.0000,0.0000,0.0000,
827,755.22,13241.09,-13241.09,1457.0000,65535.0000,4062.4000,2605.4000,0.0000,0.0000,0.0000,
828,755.63,13233.99,-13233.99,1454.6000,65535.0000,4035.2000,2580.6000,0.0000,0.0000,0.0000,
829,756.03,13226.91,-13226.91,1439.4000,65535.0000,3984.2000,2544.8000,0.0000,0.0000,0.0000,
830,756.44,13219.84,-13219.84,1441.8000,65535.0000,4023.6000,2581.8000,0.0000,0.0000,0.0000,
831,756.84,13212.78,-13212.78,1446.4000,65535.0000,4035.0000,2588.6000,0.0000,0.0000,0.0000,
832,757.25,13205.73,-13205.73,1426.8000,65535.0000,4020.2000,2593.4000,0.0000,0.0000,0.0000,
833,757.65,13198.69,-13198.69,1441.6000,65535.0000,4015.0000,2573.4000,0.0000,0.0000,0.0000,
834,758.05,13191.67,-13191.67,1457.0000,65535.0000,4029.4000,2572.4000,0.0000,0.0000,0.0000,
835,758.46,13184.65,-13184.65,1458.6000,65535.0000,4003.4000,2544.8000,0.0000,0.0000,0.0000,
836,758.86,13177.65,-13177.65,1471.4000,65535.0000,3960.8000,2489.4000,0.0000,0.0000,0.0000,
837,759.26,13170.66,-13170.66,1452.4000,65535.0000,3984.0000,2531.6000,0.0000,0.0000,0.0000,
838,759.67,13163.67,-13163.67,1464.0000,65535.0000,3977.6000,2513.6000,0.0000,0.0000,0.0000,
839,760.07,13156.70,-13156.70,1484.8000,65535.0000,4011.2000,2526.4000,0.0000,0.0000,0.0000,
840,760.47,13149.74,-13149.74,1460.6000,65535.0000,3974.0000,2513.4000,0.0000,0.0000,0.0000,
841,760.87,13142.80,-13142.80,1446.6000,65535.0000,3975.0000,2528.4000,0.0000,0.0000,0.0000,
842,761.28,13135.86,-13135.86,1441.8000,65535.0000,3948.4000,2506.6000,0.0000,0.0000,0.0000,
843,761.68,13128.93,-13128.93,1456.4000,65535.0000,3962.8000,2506.4000,0.0000,0.0000,0.0000,
844,762.08,13122.02,-13122.02,1459.4000,65535.0000,3889.2000,2429.8000,0.0000,0.0000,0.0000,
845,762.48,13115.11,-13115.11,1458.4000,65535.0000,3932.8000,2474.4000,0.0000,0.0000,0.0000,
846,762.88,13108.22,-13108.22,1436.6000,65535.0000,3915.6000,2479.0000,0.0000,0.0000,0.0000,
847,763.28,13101.33,-13101.33,1439.8000,65535.0000,3945.0000,2505.2000,0.0000,0.0000,0.0000,
848,763.68,13094.46,-13094.46,1446.4000,65535.0000,3913.2000,2466.8000,0.0000,0.0000,0.0000,
849,764.08,13087.60,-13087.60,1445.4000,65535.0000,3932.2000,2486.8000,0.0000,0.0000,0.0000,
850,764.48,13080.75,-13080.75,1457.4000,65535.0000,3940.0000,2482.6000,0.0000,0.0000,0.0000,
851,764.88,13073.91,-13073.91,1437.6000,65535.0000,3893.8000,2456.2000,0.0000,0.0000,0.0000,
852,765.28,13067.08,-13067.08,1450.0000,65535.0000,3949.0000,2499.0000,0.0000,0.0000,0.0000,
853,765.68,13060.26,-13060.26,1438.4000,65535.0000,3904.0000,2465.6000,0.0000,0.0000,0.0000,
854,766.08,13053.45,-13053.45,1436.6000,65535.0000,3931.0000,2494.4000,0.0000,0.0000,0.0000,
855,766.48,13046.66,-13046.66,1452.6000,65535.0000,3914.0000,2461.4000,0.0000,0.0000,0.0000,
856,766.88,13039.87,-13039.87,1477.6000,65535.0000,3878.8000,2401.2000,0.0000,0.0000,0.0000,
857,767.28,13033.10,-13033.10,1458.8000,65535.0000,3849.8000,2391.0000,0.0000,0.0000,0.0000,
858,767.68,13026.33,-13026.33,1440.0000,65535.0000,3826.0000,2386.0000,0.0000,0.0000,0.0000,
859,768.07,13019.58,-13019.58,1452.2000,65535.0000,3849.2000,2397.0000,0.0000,0.0000,0.0000,
860,768.47,13012.83,-13012.83,1424.6000,65535.0000,3858.2000,2433.6000,0.0000,0.0000,0.0000,
861,768.87,13006.10,-13006.10,1444.8000,65535.0000,3884.0000,2439.2000,0.0000,0.0000,0.0000,
862,769.27,12999.38,-12999.38,1471.4000,65535.0000,3905.8000,2434.4000,0.0000,0.0000,0.0000,
863,769.66,12992.67,-12992.67,1453.2000,65535.0000,3856.0000,2402.8000,0.0000,0.0000,0.0000,
864,770.06,12985.96,-12985.96,1484.4000,65535.0000,3859.6000,2375.2000,0.0000,0.0000,0.0000,
865,770.46,12979.27,-12979.27,1458.2000,65535.0000,3831.2000,2373.0000,0.0000,0.0000,0.0000,
866,770.86,12972.59,-12972.59,1465.6000,65535.0000,3759.8000,2294.2000,0.0000,0.0000,0.0000,
867,771.25,12965.92,-12965.92,1466.4000,65535.0000,3832.4000,2366.0000,0.0000,0.0000,0.0000,
868,771.65,12959.26,-12959.26,1420.4000,65535.0000,3787.0000,2366.6000,0.0000,0.0000,0.0000,
869,772.04,12952.61,-12952.61,1430.8000,65535.0000,3793.6000,2362.8000,0.0000,0.0000,0.0000,
870,772.44,12945.98,-12945.98,1436.0000,65535.0000,3754.2000,2318.2000,0.0000,0.0000,0.0000,
871,772.84,12939.35,-12939.35,1446.4000,65535.0000,3746.8000,2300.4000,0.0000,0.0000,0.0000,
872,773.23,12932.73,-12932.73,1442.4000,65535.0000,3748.8000,2306.4000,0.0000,0.0000,0.0000,
873,773.63,12926.12,-12926.12,1439.8000,65535.0000,3731.0000,2291.2000,0.0000,0.0000,0.0000,
874,774.02,12919.52,-12919.52,1452.6000,65535.0000,3844.6000,2392.0000,0.0000,0.0000,0.0000,
875,774.42,12912.94,-12912.94,1463.4000,65535.0000,3821.4000,2358.0000,0.0000,0.0000,0.0000,
876,774.81,12906.36,-12906.36,1461.8000,65535.0000,3821.0000,2359.2000,0.0000,0.0000,0.0000,
877,775.21,12899.79,-12899.79,1436.8000,65535.0000,3781.6000,2344.8000,0.0000,0.0000,0.0000,
878,775.60,12893.24,-12893.24,1461.2000,65535.0000,3800.4000,2339.2000,0.0000,0.0000,0.0000,
879,775.99,12886.69,-12886.69,1443.6000,65535.0000,3762.0000,2318.4000,0.0000,0.0000,0.0000,
880,776.39,12880.15,-12880.15,1439.4000,65535.0000,3738.4000,2299.0000,0.0000,0.0000,0.0000,
881,776.78,12873.63,-12873.63,1445.4000,65535.0000,3681.6000,2236.2000,0.0000,0.0000,0.0000,
882,777.18,12867.11,-12867.11,1459.2000,65535.0000,3742.4000,2283.2000,0.0000,0.0000,0.0000,
883,777.57,12860.61,-12860.61,1438.2000,65535.0000,3779.0000,2340.8000,0.0000,0.0000,0.0000,
884,777.96,12854.11,-12854.11,1445.6000,65535.0000,3732.2000,2286.6000,0.0000,0.0000,0.0000,
885,778.35,12847.62,-12847.62,1449.6000,65535.0000,3710.6000,2261.0000,0.0000,0.0000,0.0000,
886,778.75,12841.15,-12841.15,1463.8000,65535.0000,3678.0000,2214.2000,0.0000,0.0000,0.0000,
887,779.14,12834.68,-12834.68,1461.2000,65535.0000,3698.0000,2236.8000,0.0000,0.0000,0.0000,
888,779.53,12828.23,-12828.23,1461.0000,65535.0000,3710.6000,2249.6000,0.0000,0.0000,0.0000,
889,779.92,12821.78,-12821.78,1456.0000,65535.0000,3730.2000,2274.2000,0.0000,0.0000,0.0000,
890,780.31,12815.35,-12815.35,1469.0000,65535.0000,3684.0000,2215.0000,0.0000,0.0000,0.0000,
891,780.71,12808.92,-12808.92,1464.4000,65535.0000,3704.8000,2240.4000,0.0000,0.0000,0.0000,
892,781.10,12802.50,-12802.50,1462.6000,65535.0000,3670.4000,2207.8000,0.0000,0.0000,0.0000,
893,781.49,12796.10,-12796.10,1457.8000,65535.0000,3645.4000,2187.6000,0.0000,0.0000,0.0000,
894,781.88,12789.70,-12789.70,1414.2000,65535.0000,3617.4000,2203.2000,0.0000,0.0000,0.0000,
895,782.27,12783.32,-12783.32,1432.4000,65535.0000,3682.6000,2250.2000,0.0000,0.0000,0.0000,
896,782.66,12776.94,-12776.94,1453.0000,65535.0000,3659.4000,2206.4000,0.0000,0.0000,0.0000,
897,783.05,12770.57,-12770.57,1448.2000,65535.0000,3686.8000,2238.6000,0.0000,0.0000,0.0000,
898,783.44,12764.22,-12764.22,1454.8000,65535.0000,3683.6000,2228.8000,0.0000,0.0000,0.0000,
899,783.83,12757.87,-12757.87,1457.8000,65535.0000,3672.4000,2214.6000,0.0000,0.0000,0.0000,
900,784.22,12751.53,-12751.53,1455.2000,65535.0000,3698.2000,2243.0000,0.0000,0.0000,0.0000,
901,784.61,12745.20,-12745.20,1462.8000,65535.0000,3668.6000,2205.8000,0.0000,0.0000,0.0000,
902,785.00,12738.89,-12738.89,1468.4000,65535.0000,3684.6000,2216.2000,0.0000,0.0000,0.0000,
903,785.39,12732.58,-12732.58,1439.4000,65535.0000,3659.2000,2219.8000,0.0000,0.0000,0.0000,
904,785.78,12726.28,-12726.28,1463.4000,65535.0000,3653.0000,2189.6000,0.0000,0.0000,0.0000,
905,786.16,12719.99,-12719.99,1422.0000,65535.0000,3667.6000,2245.6000,0.0000,0.0000,0.0000,
906,786.55,12713.71,-12713.71,1421.8000,65535.0000,3665.2000,2243.4000,0.0000,0.0000,0.0000,
907,786.94,12707.44,-12707.44,1435.6000,65535.0000,3643.0000,2207.4000,0.0000,0.0000,0.0000,
908,787.33,12701.18,-12701.18,1447.0000,65535.0000,3664.6000,2217.6000,0.0000,0.0000,0.0000,
909,787.72,12694.93,-12694.93,1455.2000,65535.0000,3641.2000,2186.0000,0.0000,0.0000,0.0000,
910,788.10,12688.69,-12688.69,1427.8000,65535.0000,3660.6000,2232.8000,0.0000,0.0000,0.0000,
911,788.49,12682.46,-12682.46,1450.2000,65535.0000,3601.8000,2151.6000,0.0000,0.0000,0.0000,
912,788.88,12676.24,-12676.24,1449.2000,65535.0000,3637.0000,2187.8000,0.0000,0.0000,0.0000,
913,789.26,12670.03,-12670.03,1472.2000,65535.0000,3639.2000,2167.0000,0.0000,0.0000,0.0000,
914,789.65,12663.83,-12663.83,1449.2000,65535.0000,3637.8000,2188.6000,0.0000,0.0000,0.0000,
915,790.04,12657.63,-12657.63,1437.4000,65535.0000,3655.0000,2217.6000,0.0000,0.0000,0.0000,
916,790.42,12651.45,-12651.45,1466.2000,65535.0000,3637.2000,2171.0000,0.0000,0.0000,0.0000,
917,790.81,12645.28,-12645.28,1466.6000,65535.0000,3623.8000,2157.2000,0.0000,0.0000,0.0000,
918,791.19,12639.11,-12639.11,1441.8000,65535.0000,3611.4000,2169.6000,0.0000,0.0000,0.0000,
919,791.58,12632.96,-12632.96,1464.4000,65535.0000,3649.0000,2184.6000,0.0000,0.0000,0.0000,
920,791.97,12626.81,-12626.81,1433.4000,65535.0000,3665.4000,2232.0000,0.0000,0.0000,0.0000,
921,792.35,12620.67,-12620.67,1438.2000,65535.0000,3646.4000,2208.2000,0.0000,0.0000,0.0000,
922,792.74,12614.55,-12614.55,1427.2000,65535.0000,3599.4000,2172.2000,0.0000,0.0000,0.0000,
923,793.12,12608.43,-12608.43,1439.8000,65535.0000,3634.0000,2194.2000,0.0000,0.0000,0.0000,
924,793.50,12602.32,-12602.32,1446.8000,65535.0000,3617.6000,2170.8000,0.0000,0.0000,0.0000,
925,793.89,12596.22,-12596.22,1454.8000,65535.0000,3621.8000,2167.0000,0.0000,0.0000,0.0000,
926,794.27,12590.13,-12590.13,1441.0000,65535.0000,3628.2000,2187.2000,0.0000,0.0000,0.0000,
927,794.66,12584.05,-12584.05,1466.0000,65535.0000,3638.2000,2172.2000,0.0000,0.0000,0.0000,
928,795.04,12577.98,-12577.98,1446.4000,65535.0000,3661.6000,2215.2000,0.0000,0.0000,0.0000,
929,795.42,12571.92,-12571.92,1429.6000,65535.0000,3681.6000,2252.0000,0.0000,0.0000,0.0000,
930,795.81,12565.86,-12565.86,1444.6000,65535.0000,3639.6000,2195.0000,0.0000,0.0000,0.0000,
931,796.19,12559.82,-12559.82,1459.0000,65535.0000,3628.0000,2169.0000,0.0000,0.0000,0.0000,
932,796.57,12553.78,-12553.78,1447.0000,65535.0000,3649.2000,2202.2000,0.0000,0.0000,0.0000,
933,796.96,12547.76,-12547.76,1445.6000,65535.0000,3611.6000,2166.0000,0.0000,0.0000,0.0000,
934,797.34,12541.74,-12541.74,1449.8000,65535.0000,3588.8000,2139.0000,0.0000,0.0000,0.0000,
935,797.72,12535.74,-12535.74,1456.2000,65535.0000,3652.4000,2196.2000,0.0000,0.0000,0.0000,
936,798.10,12529.74,-12529.74,1434.6000,65535.0000,3599.8000,2165.2000,0.0000,0.0000,0.0000,
937,798.48,12523.75,-12523.75,1459.4000,65535.0000,3661.8000,2202.4000,0.0000,0.0000,0.0000,
938,798.86,12517.77,-12517.77,1436.6000,65535.0000,3681.8000,2245.2000,0.0000,0.0000,0.0000,
939,799.25,12511.80,-12511.80,1454.8000,65535.0000,3664.0000,2209.2000,0.0000,0.0000,0.0000,
940,799.63,12505.83,-12505.83,1439.6000,65535.0000,3582.2000,2142.6000,0.0000,0.0000,0.0000,
941,800.01,12499.88,-12499.88,1452.8000,65535.0000,3570.0000,2117.2000,0.0000,0.0000,0.0000,
942,800.39,12493.94,-12493.94,1456.4000,65535.0000,3590.4000,2134.0000,0.0000,0.0000,0.0000,
943,800.77,12488.00,-12488.00,1449.8000,65535.0000,3602.0000,2152.2000,0.0000,0.0000,0.0000,
944,801.15,12482.08,-12482.08,1452.8000,65535.0000,3616.8000,2164.0000,0.0000,0.0000,0.0000,
945,801.53,12476.16,-12476.16,1441.6000,65535.0000,3621.6000,2180.0000,0.0000,0.0000,0.0000,
946,801.91,12470.25,-12470.25,1454.4000,65535.0000,3588.6000,2134.2000,0.0000,0.0000,0.0000,
947,802.29,12464.35,-12464.35,1451.0000,65535.0000,3598.8000,2147.8000,0.0000,0.0000,0.0000,
948,802.67,12458.46,-12458.46,1463.4000,65535.0000,3643.2000,2179.8000,0.0000,0.0000,0.0000,
949,803.05,12452.58,-12452.58,1455.6000,65535.0000,3624.2000,2168.6000,0.0000,0.0000,0.0000,
950,803.43,12446.71,-12446.71,1445.8000,65535.0000,3633.6000,2187.8000,0.0000,0.0000,0.0000,
951,803.80,12440.84,-12440.84,1447.8000,65535.0000,3598.2000,2150.4000,0.0000,0.0000,0.0000,
952,804.18,12434.99,-12434.99,1456.6000,65535.0000,3615.0000,2158.4000,0.0000,0.0000,0.0000,
953,804.56,12429.14,-12429.14,1425.2000,65535.0000,3622.6000,2197.4000,0.0000,0.0000,0.0000,
954,804.94,12423.30,-12423.30,1445.2000,65535.0000,3624.4000,2179.2000,0.0000,0.0000,0.0000,
955,805.32,12417.48,-12417.48,1434.0000,65535.0000,3653.0000,2219.0000,0.0000,0.0000,0.0000,
956,805.69,12411.66,-12411.66,1427.0000,65535.0000,3612.8000,2185.8000,0.0000,0.0000,0.0000,
957,806.07,12405.84,-12405.84,1461.2000,65535.0000,3576.8000,2115.6000,0.0000,0.0000,0.0000,
958,806.45,12400.04,-12400.04,1459.2000,65535.0000,3596.0000,2136.8000,0.0000,0.0000,0.0000,
959,806.83,12394.25,-12394.25,1443.0000,65535.0000,3618.6000,2175.6000,0.0000,0.0000,0.0000,
960,807.20,12388.46,-12388.46,1459.0000,65535.0000,3644.8000,2185.8000,0.0000,0.0000,0.0000,
961,807.58,12382.69,-12382.69,1457.8000,65535.0000,3619.2000,2161.4000,0.0000,0.0000,0.0000,
962,807.96,12376.92,-12376.92,1450.2000,65535.0000,3564.4000,2114.2000,0.0000,0.0000,0.0000,
963,808.33,12371.16,-12371.16,1436.4000,65535.0000,3562.4000,2126.0000,0.0000,0.0000,0.0000,
964,808.71,12365.41,-12365.41,1444.6000,65535.0000,3637.8000,2193.2000,0.0000,0.0000,0.0000,
965,809.08,12359.67,-12359.67,1453.6000,65535.0000,3600.6000,2147.0000,0.0000,0.0000,0.0000,
966,809.46,12353.93,-12353.93,1461.6000,65535.0000,3569.6000,2108.0000,0.0000,0.0000,0.0000,
967,809.83,12348.21,-12348.21,1444.2000,65535.0000,3595.8000,2151.6000,0.0000,0.0000,0.0000,
968,810.21,12342.49,-12342.49,1448.0000,65535.0000,3556.0000,2108.0000,0.0000,0.0000,0.0000,
969,810.58,12336.78,-12336.78,1487.6000,65535.0000,3580.4000,2092.8000,0.0000,0.0000,0.0000,
970,810.96,12331.08,-12331.08,1444.0000,65535.0000,3602.6000,2158.6000,0.0000,0.0000,0.0000,
971,811.33,12325.39,-12325.39,1450.4000,65535.0000,3580.2000,2129.8000,0.0000,0.0000,0.0000,
972,811.71,12319.71,-12319.71,1455.8000,65535.0000,3618.0000,2162.2000,0.0000,0.0000,0.0000,
973,812.08,12314.04,-12314.04,1426.0000,65535.0000,3615.8000,2189.8000,0.0000,0.0000,0.0000,
974,812.46,12308.37,-12308.37,1431.4000,65535.0000,3604.0000,2172.6000,0.0000,0.0000,0.0000,
975,812.83,12302.72,-12302.72,1451.2000,65535.0000,3655.4000,2204.2000,0.0000,0.0000,0.0000,
976,813.20,12297.07,-12297.07,1421.2000,65535.0000,3607.4000,2186.2000,0.0000,0.0000,0.0000,
977,813.58,12291.43,-12291.43,1426.8000,65535.0000,3656.2000,2229.4000,0.0000,0.0000,0.0000,
978,813.95,12285.79,-12285.79,1444.4000,65535.0000,3572.6000,2128.2000,0.0000,0.0000,0.0000,
979,814.32,12280.17,-12280.17,1457.6000,65535.0000,3620.8000,2163.2000,0.0000,0.0000,0.0000,
980,814.69,12274.56,-12274.56,1433.4000,65535.0000,3626.8000,2193.4000,0.0000,0.0000,0.0000,
981,815.07,12268.95,-12268.95,1441.4000,65535.0000,3631.4000,2190.0000,0.0000,0.0000,0.0000,
982,815.44,12263.35,-12263.35,1450.6000,65535.0000,3597.4000,2146.8000,0.0000,0.0000,0.0000,
983,815.81,12257.76,-12257.76,1435.0000,65535.0000,3612.6000,2177.6000,0.0000,0.0000,0.0000,
984,816.18,12252.18,-12252.18,1424.8000,65535.0000,3608.2000,2183.4000,0.0000,0.0000,0.0000,
985,816.55,12246.61,-12246.61,1452.0000,65535.0000,3635.6000,2183.6000,0.0000,0.0000,0.0000,
986,816.92,12241.04,-12241.04,1436.2000,65535.0000,3604.4000,2168.2000,0.0000,0.0000,0.0000,
987,817.29,12235.48,-12235.48,1443.6000,65535.0000,3609.6000,2166.0000,0.0000,0.0000,0.0000,
988,817.67,12229.94,-12229.94,1415.6000,65535.0000,3654.2000,2238.6000,0.0000,0.0000,0.0000,
989,818.04,12224.40,-12224.40,1429.6000,65535.0000,3691.2000,2261.6000,0.0000,0.0000,0.0000,
990,818.41,12218.86,-12218.86,1425.6000,65535.0000,3637.2000,2211.6000,0.0000,0.0000,0.0000,
991,818.78,12213.34,-12213.34,1433.8000,65535.0000,3650.2000,2216.4000,0.0000,0.0000,0.0000,
992,819.15,12207.82,-12207.82,1444.0000,65535.0000,3659.2000,2215.2000,0.0000,0.0000,0.0000,
993,819.52,12202.32,-12202.32,1427.2000,65535.0000,3635.0000,2207.8000,0.0000,0.0000,0.0000,
994,819.89,12196.82,-12196.82,1432.2000,65535.0000,3626.8000,2194.6000,0.0000,0.0000,0.0000,
995,820.26,12191.32,-12191.32,1458.0000,65535.0000,3635.0000,2177.0000,0.0000,0.0000,0.0000,
996,820.62,12185.84,-12185.84,1438.0000,65535.0000,3608.6000,2170.6000,0.0000,0.0000,0.0000,
997,820.99,12180.37,-12180.37,1420.8000,65535.0000,3597.0000,2176.2000,0.0000,0.0000,0.0000,
998,821.36,12174.90,-12174.90,1414.2000,65535.0000,3614.8000,2200.6000,0.0000,0.0000,0.0000,
999,821.73,12169.44,-12169.44,1443.4000,65535.0000,3667.0000,2223.6000,0.0000,0.0000,0.0000,
