File Version;BWSpec4.03_33_C
Date,2026-04-16 14:44:55
title,ZMYE
model,BRC1K
c code,ZMYE
operator,
port1,0
baud1,3
pixel_start,0
pixel_end,999
step,1
units,1
bkcolor,16777215
show_mode,3
data_mode,0
pixel_mode,0
intigration times(ms),10
average number,5
time_multiply,1
spectrometer_type ,71
yaxis,1
yaxis_min,-494
yaxis_max,65535
xaxis,0
xaxis_min,0
xaxis_max,999
irrands_DispWLMin,100
irrands_DispWLMax,1000
yaxis_min_6,0
yaxis_max_6,0
irradiance_unit,0
Color_Data_Flag,0
Color_StartWL,400
Color_EndWL,700
Color_IncWL,10
power_unit_index,3
photometric_index,0
Illuminant_index,3
observer_index,0
lab_l,0
lab_a,0
lab_b,0
radiometric_flag,0
coefs_a0,348.690626413622
coefs_a1,0.577242842360403
coefs_a2,-0.000102397725884922
coefs_a3,-1.43696470178894E-09
coefs_b0,-604.699216452593
coefs_b1,1.81821494738794
coefs_b2,-0.000542372268672448
coefs_b3,8.54199818797248E-07
coefs_r0,1
coefs_r1,0
coefs_r2,0
coefs_r3,0
coefs_j0,1
coefs_j1,0
coefs_j2,0
coefs_j3,0
enable_coefs_r,0
all_data_save,1
select_option,-1
interval_time,10
pixel_num,1000
sel_pixel_start,0
sel_pixel_end,968
sel_pixel_delta,1
dark_compensate,0
dark_compensate_value_1,0
dark_compensate_value_2,0
dark_compensate_value_3,0
monitor pixel_0,0
monitor pixel_1,0
monitor pixel_2,0
monitor pixel_3,0
monitor pixel_4,0
monitor pixel_5,0
vertical_select_flag,0
vertical_line3,0
vertical_line4,0
vertical_line3_wv,1
vertical_line4_wv,1
vertical_line_flag,0
vertical_line_ratio,0
laser_wavelength,0
laser_powerlevel,0
overlay_js,0
Relative Intensity Correction Flag,0
Pixel,Wavelength,Wavenumber,Raman Shift,Dark,Reference,Raw data #1,Dark Subtracted #1,%TR #1,Absorbance #1,Irradiance (lumen) #1,
0,348.69,28678.72,-28678.72,1436.4000,65535.0000,1554.2000,117.8000,0.0000,0.0000,0.0000,
1,349.27,28631.33,-28631.33,1410.4000,65535.0000,1561.6000,151.2000,0.0000,0.0000,0.0000,
2,349.84,28584.11,-28584.11,1450.8000,65535.0000,1599.2000,148.4000,0.0000,0.0000,0.0000,
3,350.42,28537.07,-28537.07,1425.2000,65535.0000,1556.6000,131.4000,0.0000,0.0000,0.0000,
4,351.00,28490.19,-28490.19,1469.6000,65535.0000,1593.8000,124.2000,0.0000,0.0000,0.0000,
5,351.57,28443.49,-28443.49,1437.6000,65535.0000,1597.4000,159.8000,0.0000,0.0000,0.0000,
6,352.15,28396.96,-28396.96,1425.8000,65535.0000,1597.0000,171.2000,0.0000,0.0000,0.0000,
7,352.73,28350.59,-28350.59,1411.8000,65535.0000,1584.4000,172.6000,0.0000,0.0000,0.0000,
8,353.30,28304.40,-28304.40,1420.6000,65535.0000,1571.6000,151.0000,0.0000,0.0000,0.0000,
9,353.88,28258.36,-28258.36,1423.8000,65535.0000,1559.4000,135.6000,0.0000,0.0000,0.0000,
10,354.45,28212.50,-28212.50,1436.8000,65535.0000,1575.4000,138.6000,0.0000,0.0000,0.0000,
11,355.03,28166.80,-28166.80,1414.2000,65535.0000,1569.6000,155.4000,0.0000,0.0000,0.0000,
12,355.60,28121.26,-28121.26,1438.2000,65535.0000,1563.6000,125.4000,0.0000,0.0000,0.0000,
13,356.18,28075.89,-28075.89,1418.2000,65535.0000,1573.0000,154.8000,0.0000,0.0000,0.0000,
14,356.75,28030.68,-28030.68,1444.4000,65535.0000,1578.4000,134.0000,0.0000,0.0000,0.0000,
15,357.33,27985.63,-27985.63,1416.0000,65535.0000,1581.8000,165.8000,0.0000,0.0000,0.0000,
16,357.90,27940.74,-27940.74,1447.2000,65535.0000,1601.6000,154.4000,0.0000,0.0000,0.0000,
17,358.47,27896.01,-27896.01,1448.6000,65535.0000,1589.2000,140.6000,0.0000,0.0000,0.0000,
18,359.05,27851.44,-27851.44,1433.2000,65535.0000,1561.8000,128.6000,0.0000,0.0000,0.0000,
19,359.62,27807.03,-27807.03,1392.6000,65535.0000,1578.2000,185.6000,0.0000,0.0000,0.0000,
20,360.19,27762.78,-27762.78,1443.8000,65535.0000,1578.8000,135.0000,0.0000,0.0000,0.0000,
21,360.77,27718.68,-27718.68,1433.8000,65535.0000,1575.6000,141.8000,0.0000,0.0000,0.0000,
22,361.34,27674.74,-27674.74,1420.6000,65535.0000,1605.2000,184.6000,0.0000,0.0000,0.0000,
23,361.91,27630.95,-27630.95,1400.8000,65535.0000,1586.8000,186.0000,0.0000,0.0000,0.0000,
24,362.49,27587.31,-27587.31,1417.6000,65535.0000,1588.0000,170.4000,0.0000,0.0000,0.0000,
25,363.06,27543.83,-27543.83,1437.2000,65535.0000,1605.2000,168.0000,0.0000,0.0000,0.0000,
26,363.63,27500.50,-27500.50,1419.0000,65535.0000,1571.4000,152.4000,0.0000,0.0000,0.0000,
27,364.20,27457.33,-27457.33,1400.8000,65535.0000,1570.8000,170.0000,0.0000,0.0000,0.0000,
28,364.77,27414.30,-27414.30,1426.4000,65535.0000,1592.6000,166.2000,0.0000,0.0000,0.0000,
29,365.34,27371.42,-27371.42,1426.8000,65535.0000,1565.2000,138.4000,0.0000,0.0000,0.0000,
30,365.92,27328.70,-27328.70,1401.0000,65535.0000,1576.4000,175.4000,0.0000,0.0000,0.0000,
31,366.49,27286.12,-27286.12,1431.2000,65535.0000,1579.8000,148.6000,0.0000,0.0000,0.0000,
32,367.06,27243.69,-27243.69,1424.0000,65535.0000,1587.8000,163.8000,0.0000,0.0000,0.0000,
33,367.63,27201.40,-27201.40,1436.2000,65535.0000,1569.8000,133.6000,0.0000,0.0000,0.0000,
34,368.20,27159.27,-27159.27,1403.2000,65535.0000,1578.4000,175.2000,0.0000,0.0000,0.0000,
35,368.77,27117.27,-27117.27,1422.6000,65535.0000,1573.2000,150.6000,0.0000,0.0000,0.0000,
36,369.34,27075.43,-27075.43,1401.2000,65535.0000,1602.4000,201.2000,0.0000,0.0000,0.0000,
37,369.91,27033.72,-27033.72,1408.4000,65535.0000,1596.0000,187.6000,0.0000,0.0000,0.0000,
38,370.48,26992.16,-26992.16,1445.4000,65535.0000,1632.0000,186.6000,0.0000,0.0000,0.0000,
39,371.05,26950.74,-26950.74,1455.2000,65535.0000,1563.2000,108.0000,0.0000,0.0000,0.0000,
40,371.62,26909.47,-26909.47,1414.6000,65535.0000,1602.0000,187.4000,0.0000,0.0000,0.0000,
41,372.19,26868.33,-26868.33,1449.6000,65535.0000,1617.8000,168.2000,0.0000,0.0000,0.0000,
42,372.75,26827.34,-26827.34,1414.4000,65535.0000,1620.0000,205.6000,0.0000,0.0000,0.0000,
43,373.32,26786.48,-26786.48,1413.8000,65535.0000,1630.2000,216.4000,0.0000,0.0000,0.0000,
44,373.89,26745.77,-26745.77,1424.6000,65535.0000,1611.0000,186.4000,0.0000,0.0000,0.0000,
45,374.46,26705.19,-26705.19,1425.4000,65535.0000,1615.4000,190.0000,0.0000,0.0000,0.0000,
46,375.03,26664.75,-26664.75,1422.0000,65535.0000,1650.6000,228.6000,0.0000,0.0000,0.0000,
47,375.59,26624.44,-26624.44,1420.8000,65535.0000,1621.6000,200.8000,0.0000,0.0000,0.0000,
48,376.16,26584.28,-26584.28,1396.6000,65535.0000,1623.2000,226.6000,0.0000,0.0000,0.0000,
49,376.73,26544.24,-26544.24,1428.0000,65535.0000,1611.6000,183.6000,0.0000,0.0000,0.0000,
50,377.30,26504.35,-26504.35,1412.2000,65535.0000,1639.0000,226.8000,0.0000,0.0000,0.0000,
51,377.86,26464.58,-26464.58,1421.0000,65535.0000,1688.8000,267.8000,0.0000,0.0000,0.0000,
52,378.43,26424.95,-26424.95,1450.2000,65535.0000,1657.0000,206.8000,0.0000,0.0000,0.0000,
53,379.00,26385.46,-26385.46,1408.2000,65535.0000,1654.8000,246.6000,0.0000,0.0000,0.0000,
54,379.56,26346.09,-26346.09,1429.6000,65535.0000,1659.0000,229.4000,0.0000,0.0000,0.0000,
55,380.13,26306.86,-26306.86,1434.2000,65535.0000,1669.2000,235.0000,0.0000,0.0000,0.0000,
56,380.69,26267.76,-26267.76,1436.6000,65535.0000,1679.4000,242.8000,0.0000,0.0000,0.0000,
57,381.26,26228.78,-26228.78,1423.8000,65535.0000,1689.2000,265.4000,0.0000,0.0000,0.0000,
58,381.83,26189.94,-26189.94,1418.4000,65535.0000,1701.2000,282.8000,0.0000,0.0000,0.0000,
59,382.39,26151.23,-26151.23,1410.0000,65535.0000,1701.6000,291.6000,0.0000,0.0000,0.0000,
60,382.96,26112.64,-26112.64,1420.0000,65535.0000,1702.6000,282.6000,0.0000,0.0000,0.0000,
61,383.52,26074.19,-26074.19,1420.2000,65535.0000,1702.4000,282.2000,0.0000,0.0000,0.0000,
62,384.09,26035.85,-26035.85,1405.4000,65535.0000,1692.8000,287.4000,0.0000,0.0000,0.0000,
63,384.65,25997.65,-25997.65,1437.0000,65535.0000,1713.2000,276.2000,0.0000,0.0000,0.0000,
64,385.21,25959.57,-25959.57,1425.2000,65535.0000,1719.4000,294.2000,0.0000,0.0000,0.0000,
65,385.78,25921.62,-25921.62,1440.4000,65535.0000,1697.0000,256.6000,0.0000,0.0000,0.0000,
66,386.34,25883.79,-25883.79,1416.8000,65535.0000,1744.6000,327.8000,0.0000,0.0000,0.0000,
67,386.91,25846.08,-25846.08,1423.6000,65535.0000,1737.6000,314.0000,0.0000,0.0000,0.0000,
68,387.47,25808.50,-25808.50,1445.6000,65535.0000,1750.6000,305.0000,0.0000,0.0000,0.0000,
69,388.03,25771.04,-25771.04,1438.8000,65535.0000,1759.6000,320.8000,0.0000,0.0000,0.0000,
70,388.60,25733.71,-25733.71,1445.2000,65535.0000,1774.6000,329.4000,0.0000,0.0000,0.0000,
71,389.16,25696.49,-25696.49,1441.8000,65535.0000,1773.2000,331.4000,0.0000,0.0000,0.0000,
72,389.72,25659.40,-25659.40,1453.0000,65535.0000,1775.6000,322.6000,0.0000,0.0000,0.0000,
73,390.28,25622.43,-25622.43,1424.0000,65535.0000,1777.0000,353.0000,0.0000,0.0000,0.0000,
74,390.85,25585.57,-25585.57,1409.0000,65535.0000,1820.2000,411.2000,0.0000,0.0000,0.0000,
75,391.41,25548.84,-25548.84,1432.0000,65535.0000,1787.0000,355.0000,0.0000,0.0000,0.0000,
76,391.97,25512.22,-25512.22,1426.4000,65535.0000,1820.4000,394.0000,0.0000,0.0000,0.0000,
77,392.53,25475.72,-25475.72,1426.4000,65535.0000,1828.8000,402.4000,0.0000,0.0000,0.0000,
78,393.09,25439.34,-25439.34,1409.6000,65535.0000,1814.2000,404.6000,0.0000,0.0000,0.0000,
79,393.65,25403.08,-25403.08,1433.0000,65535.0000,1807.8000,374.8000,0.0000,0.0000,0.0000,
80,394.21,25366.93,-25366.93,1416.0000,65535.0000,1853.6000,437.6000,0.0000,0.0000,0.0000,
81,394.77,25330.90,-25330.90,1460.4000,65535.0000,1901.4000,441.0000,0.0000,0.0000,0.0000,
82,395.34,25294.99,-25294.99,1429.8000,65535.0000,1867.8000,438.0000,0.0000,0.0000,0.0000,
83,395.90,25259.19,-25259.19,1423.6000,65535.0000,1879.0000,455.4000,0.0000,0.0000,0.0000,
84,396.46,25223.50,-25223.50,1439.4000,65535.0000,1885.4000,446.0000,0.0000,0.0000,0.0000,
85,397.02,25187.93,-25187.93,1438.2000,65535.0000,1934.0000,495.8000,0.0000,0.0000,0.0000,
86,397.58,25152.47,-25152.47,1393.0000,65535.0000,1911.6000,518.6000,0.0000,0.0000,0.0000,
87,398.13,25117.12,-25117.12,1416.6000,65535.0000,1939.2000,522.6000,0.0000,0.0000,0.0000,
88,398.69,25081.89,-25081.89,1416.4000,65535.0000,1926.0000,509.6000,0.0000,0.0000,0.0000,
89,399.25,25046.77,-25046.77,1419.4000,65535.0000,1945.2000,525.8000,0.0000,0.0000,0.0000,
90,399.81,25011.75,-25011.75,1432.0000,65535.0000,1939.4000,507.4000,0.0000,0.0000,0.0000,
91,400.37,24976.85,-24976.85,1425.4000,65535.0000,1964.8000,539.4000,0.0000,0.0000,0.0000,
92,400.93,24942.06,-24942.06,1426.0000,65535.0000,1957.8000,531.8000,0.0000,0.0000,0.0000,
93,401.49,24907.38,-24907.38,1418.0000,65535.0000,1981.8000,563.8000,0.0000,0.0000,0.0000,
94,402.05,24872.81,-24872.81,1423.6000,65535.0000,1986.8000,563.2000,0.0000,0.0000,0.0000,
95,402.60,24838.34,-24838.34,1411.4000,65535.0000,1987.6000,576.2000,0.0000,0.0000,0.0000,
96,403.16,24803.99,-24803.99,1432.0000,65535.0000,2015.2000,583.2000,0.0000,0.0000,0.0000,
97,403.72,24769.74,-24769.74,1427.2000,65535.0000,2056.6000,629.4000,0.0000,0.0000,0.0000,
98,404.28,24735.60,-24735.60,1439.0000,65535.0000,2050.8000,611.8000,0.0000,0.0000,0.0000,
99,404.83,24701.56,-24701.56,1408.6000,65535.0000,2051.8000,643.2000,0.0000,0.0000,0.0000,
100,405.39,24667.63,-24667.63,1421.4000,65535.0000,2052.4000,631.0000,0.0000,0.0000,0.0000,
101,405.95,24633.81,-24633.81,1447.6000,65535.0000,2068.6000,621.0000,0.0000,0.0000,0.0000,
102,406.50,24600.09,-24600.09,1441.4000,65535.0000,2101.8000,660.4000,0.0000,0.0000,0.0000,
103,407.06,24566.48,-24566.48,1429.2000,65535.0000,2104.6000,675.4000,0.0000,0.0000,0.0000,
104,407.61,24532.97,-24532.97,1423.6000,65535.0000,2097.6000,674.0000,0.0000,0.0000,0.0000,
105,408.17,24499.56,-24499.56,1425.2000,65535.0000,2132.8000,707.6000,0.0000,0.0000,0.0000,
106,408.73,24466.26,-24466.26,1421.2000,65535.0000,2113.0000,691.8000,0.0000,0.0000,0.0000,
107,409.28,24433.06,-24433.06,1435.6000,65535.0000,2151.2000,715.6000,0.0000,0.0000,0.0000,
108,409.84,24399.96,-24399.96,1416.0000,65535.0000,2172.4000,756.4000,0.0000,0.0000,0.0000,
109,410.39,24366.97,-24366.97,1424.0000,65535.0000,2189.2000,765.2000,0.0000,0.0000,0.0000,
110,410.95,24334.07,-24334.07,1432.4000,65535.0000,2196.0000,763.6000,0.0000,0.0000,0.0000,
111,411.50,24301.28,-24301.28,1414.8000,65535.0000,2192.8000,778.0000,0.0000,0.0000,0.0000,
112,412.06,24268.59,-24268.59,1421.2000,65535.0000,2204.4000,783.2000,0.0000,0.0000,0.0000,
113,412.61,24235.99,-24235.99,1412.6000,65535.0000,2280.2000,867.6000,0.0000,0.0000,0.0000,
114,413.16,24203.50,-24203.50,1441.6000,65535.0000,2268.6000,827.0000,0.0000,0.0000,0.0000,
115,413.72,24171.10,-24171.10,1447.0000,65535.0000,2248.2000,801.2000,0.0000,0.0000,0.0000,
116,414.27,24138.81,-24138.81,1434.6000,65535.0000,2274.2000,839.6000,0.0000,0.0000,0.0000,
117,414.82,24106.61,-24106.61,1446.8000,65535.0000,2306.0000,859.2000,0.0000,0.0000,0.0000,
118,415.38,24074.51,-24074.51,1416.4000,65535.0000,2328.0000,911.6000,0.0000,0.0000,0.0000,
119,415.93,24042.50,-24042.50,1438.8000,65535.0000,2342.6000,903.8000,0.0000,0.0000,0.0000,
120,416.48,24010.60,-24010.60,1439.6000,65535.0000,2353.2000,913.6000,0.0000,0.0000,0.0000,
121,417.04,23978.79,-23978.79,1413.0000,65535.0000,2358.4000,945.4000,0.0000,0.0000,0.0000,
122,417.59,23947.07,-23947.07,1427.8000,65535.0000,2394.8000,967.0000,0.0000,0.0000,0.0000,
123,418.14,23915.46,-23915.46,1421.6000,65535.0000,2372.8000,951.2000,0.0000,0.0000,0.0000,
124,418.69,23883.93,-23883.93,1423.4000,65535.0000,2369.2000,945.8000,0.0000,0.0000,0.0000,
125,419.24,23852.50,-23852.50,1409.8000,65535.0000,2422.0000,1012.2000,0.0000,0.0000,0.0000,
126,419.79,23821.17,-23821.17,1409.2000,65535.0000,2426.8000,1017.6000,0.0000,0.0000,0.0000,
127,420.35,23789.93,-23789.93,1408.4000,65535.0000,2435.0000,1026.6000,0.0000,0.0000,0.0000,
128,420.90,23758.78,-23758.78,1439.0000,65535.0000,2436.6000,997.6000,0.0000,0.0000,0.0000,
129,421.45,23727.73,-23727.73,1424.6000,65535.0000,2445.8000,1021.2000,0.0000,0.0000,0.0000,
130,422.00,23696.77,-23696.77,1424.0000,65535.0000,2453.4000,1029.4000,0.0000,0.0000,0.0000,
131,422.55,23665.90,-23665.90,1416.8000,65535.0000,2505.6000,1088.8000,0.0000,0.0000,0.0000,
132,423.10,23635.12,-23635.12,1405.4000,65535.0000,2537.2000,1131.8000,0.0000,0.0000,0.0000,
133,423.65,23604.43,-23604.43,1428.6000,65535.0000,2565.6000,1137.0000,0.0000,0.0000,0.0000,
134,424.20,23573.84,-23573.84,1402.6000,65535.0000,2608.2000,1205.6000,0.0000,0.0000,0.0000,
135,424.75,23543.33,-23543.33,1425.2000,65535.0000,2604.0000,1178.8000,0.0000,0.0000,0.0000,
136,425.30,23512.92,-23512.92,1424.8000,65535.0000,2590.8000,1166.0000,0.0000,0.0000,0.0000,
137,425.85,23482.60,-23482.60,1408.2000,65535.0000,2654.8000,1246.6000,0.0000,0.0000,0.0000,
138,426.40,23452.36,-23452.36,1423.6000,65535.0000,2706.6000,1283.0000,0.0000,0.0000,0.0000,
139,426.95,23422.22,-23422.22,1441.0000,65535.0000,2686.2000,1245.2000,0.0000,0.0000,0.0000,
140,427.49,23392.16,-23392.16,1411.8000,65535.0000,2701.2000,1289.4000,0.0000,0.0000,0.0000,
141,428.04,23362.19,-23362.19,1412.6000,65535.0000,2752.6000,1340.0000,0.0000,0.0000,0.0000,
142,428.59,23332.31,-23332.31,1438.0000,65535.0000,2786.8000,1348.8000,0.0000,0.0000,0.0000,
143,429.14,23302.52,-23302.52,1428.8000,65535.0000,2803.6000,1374.8000,0.0000,0.0000,0.0000,
144,429.69,23272.81,-23272.81,1407.4000,65535.0000,2820.0000,1412.6000,0.0000,0.0000,0.0000,
145,430.23,23243.19,-23243.19,1434.0000,65535.0000,2860.2000,1426.2000,0.0000,0.0000,0.0000,
146,430.78,23213.66,-23213.66,1431.0000,65535.0000,2860.2000,1429.2000,0.0000,0.0000,0.0000,
147,431.33,23184.21,-23184.21,1431.0000,65535.0000,2887.0000,1456.0000,0.0000,0.0000,0.0000,
148,431.87,23154.85,-23154.85,1405.6000,65535.0000,2917.6000,1512.0000,0.0000,0.0000,0.0000,
149,432.42,23125.57,-23125.57,1420.6000,65535.0000,2972.4000,1551.8000,0.0000,0.0000,0.0000,
150,432.97,23096.38,-23096.38,1421.4000,65535.0000,3000.8000,1579.4000,0.0000,0.0000,0.0000,
151,433.51,23067.28,-23067.28,1421.2000,65535.0000,2998.6000,1577.4000,0.0000,0.0000,0.0000,
152,434.06,23038.25,-23038.25,1436.0000,65535.0000,3055.6000,1619.6000,0.0000,0.0000,0.0000,
153,434.61,23009.31,-23009.31,1428.2000,65535.0000,3055.8000,1627.6000,0.0000,0.0000,0.0000,
154,435.15,22980.46,-22980.46,1418.6000,65535.0000,3073.0000,1654.4000,0.0000,0.0000,0.0000,
155,435.70,22951.69,-22951.69,1410.8000,65535.0000,3137.0000,1726.2000,0.0000,0.0000,0.0000,
156,436.24,22923.00,-22923.00,1442.2000,65535.0000,3127.8000,1685.6000,0.0000,0.0000,0.0000,
157,436.79,22894.39,-22894.39,1434.6000,65535.0000,3146.4000,1711.8000,0.0000,0.0000,0.0000,
158,437.33,22865.87,-22865.87,1439.6000,65535.0000,3142.4000,1702.8000,0.0000,0.0000,0.0000,
159,437.88,22837.42,-22837.42,1421.4000,65535.0000,3175.8000,1754.4000,0.0000,0.0000,0.0000,
160,438.42,22809.06,-22809.06,1420.2000,65535.0000,3207.0000,1786.8000,0.0000,0.0000,0.0000,
161,438.97,22780.78,-22780.78,1418.2000,65535.0000,3253.2000,1835.0000,0.0000,0.0000,0.0000,
162,439.51,22752.58,-22752.58,1412.0000,65535.0000,3253.2000,1841.2000,0.0000,0.0000,0.0000,
163,440.05,22724.46,-22724.46,1416.6000,65535.0000,3283.2000,1866.6000,0.0000,0.0000,0.0000,
164,440.60,22696.42,-22696.42,1432.8000,65535.0000,3323.6000,1890.8000,0.0000,0.0000,0.0000,
165,441.14,22668.47,-22668.47,1429.8000,65535.0000,3342.2000,1912.4000,0.0000,0.0000,0.0000,
166,441.68,22640.59,-22640.59,1400.4000,65535.0000,3347.8000,1947.4000,0.0000,0.0000,0.0000,
167,442.23,22612.78,-22612.78,1428.8000,65535.0000,3393.0000,1964.2000,0.0000,0.0000,0.0000,
168,442.77,22585.06,-22585.06,1449.0000,65535.0000,3441.8000,1992.8000,0.0000,0.0000,0.0000,
169,443.31,22557.42,-22557.42,1449.4000,65535.0000,3440.2000,1990.8000,0.0000,0.0000,0.0000,
170,443.86,22529.85,-22529.85,1418.0000,65535.0000,3479.8000,2061.8000,0.0000,0.0000,0.0000,
171,444.40,22502.36,-22502.36,1429.8000,65535.0000,3515.4000,2085.6000,0.0000,0.0000,0.0000,
172,444.94,22474.95,-22474.95,1423.2000,65535.0000,3533.6000,2110.4000,0.0000,0.0000,0.0000,
173,445.48,22447.62,-22447.62,1412.4000,65535.0000,3562.6000,2150.2000,0.0000,0.0000,0.0000,
174,446.02,22420.36,-22420.36,1423.6000,65535.0000,3593.6000,2170.0000,0.0000,0.0000,0.0000,
175,446.56,22393.18,-22393.18,1434.2000,65535.0000,3677.0000,2242.8000,0.0000,0.0000,0.0000,
176,447.11,22366.08,-22366.08,1419.6000,65535.0000,3655.4000,2235.8000,0.0000,0.0000,0.0000,
177,447.65,22339.05,-22339.05,1438.0000,65535.0000,3719.0000,2281.0000,0.0000,0.0000,0.0000,
178,448.19,22312.10,-22312.10,1430.8000,65535.0000,3718.6000,2287.8000,0.0000,0.0000,0.0000,
179,448.73,22285.22,-22285.22,1465.4000,65535.0000,3764.4000,2299.0000,0.0000,0.0000,0.0000,
180,449.27,22258.42,-22258.42,1437.4000,65535.0000,3818.0000,2380.6000,0.0000,0.0000,0.0000,
181,449.81,22231.69,-22231.69,1409.4000,65535.0000,3888.4000,2479.0000,0.0000,0.0000,0.0000,
182,450.35,22205.03,-22205.03,1444.6000,65535.0000,3867.8000,2423.2000,0.0000,0.0000,0.0000,
183,450.89,22178.45,-22178.45,1431.8000,65535.0000,3933.8000,2502.0000,0.0000,0.0000,0.0000,
184,451.43,22151.95,-22151.95,1434.6000,65535.0000,4016.0000,2581.4000,0.0000,0.0000,0.0000,
185,451.97,22125.51,-22125.51,1433.8000,65535.0000,4048.4000,2614.6000,0.0000,0.0000,0.0000,
186,452.51,22099.15,-22099.15,1434.8000,65535.0000,4047.6000,2612.8000,0.0000,0.0000,0.0000,
187,453.04,22072.87,-22072.87,1430.8000,65535.0000,4143.6000,2712.8000,0.0000,0.0000,0.0000,
188,453.58,22046.65,-22046.65,1441.4000,65535.0000,4133.0000,2691.6000,0.0000,0.0000,0.0000,
189,454.12,22020.51,-22020.51,1410.8000,65535.0000,4238.2000,2827.4000,0.0000,0.0000,0.0000,
190,454.66,21994.44,-21994.44,1436.8000,65535.0000,4229.6000,2792.8000,0.0000,0.0000,0.0000,
191,455.20,21968.44,-21968.44,1418.6000,65535.0000,4334.4000,2915.8000,0.0000,0.0000,0.0000,
192,455.74,21942.51,-21942.51,1444.2000,65535.0000,4304.6000,2860.4000,0.0000,0.0000,0.0000,
193,456.27,21916.66,-21916.66,1428.6000,65535.0000,4383.0000,2954.4000,0.0000,0.0000,0.0000,
194,456.81,21890.87,-21890.87,1411.2000,65535.0000,4450.4000,3039.2000,0.0000,0.0000,0.0000,
195,457.35,21865.16,-21865.16,1423.2000,65535.0000,4494.8000,3071.6000,0.0000,0.0000,0.0000,
196,457.89,21839.51,-21839.51,1438.2000,65535.0000,4523.6000,3085.4000,0.0000,0.0000,0.0000,
197,458.42,21813.94,-21813.94,1429.6000,65535.0000,4573.0000,3143.4000,0.0000,0.0000,0.0000,
198,458.96,21788.43,-21788.43,1419.6000,65535.0000,4696.4000,3276.8000,0.0000,0.0000,0.0000,
199,459.50,21763.00,-21763.00,1433.0000,65535.0000,4772.2000,3339.2000,0.0000,0.0000,0.0000,
200,460.03,21737.63,-21737.63,1398.6000,65535.0000,4701.8000,3303.2000,0.0000,0.0000,0.0000,
201,460.57,21712.33,-21712.33,1440.4000,65535.0000,4823.8000,3383.4000,0.0000,0.0000,0.0000,
202,461.10,21687.10,-21687.10,1406.0000,65535.0000,4826.8000,3420.8000,0.0000,0.0000,0.0000,
203,461.64,21661.94,-21661.94,1439.2000,65535.0000,4852.0000,3412.8000,0.0000,0.0000,0.0000,
204,462.17,21636.85,-21636.85,1416.2000,65535.0000,4855.2000,3439.0000,0.0000,0.0000,0.0000,
205,462.71,21611.82,-21611.82,1413.4000,65535.0000,4935.6000,3522.2000,0.0000,0.0000,0.0000,
206,463.24,21586.86,-21586.86,1421.8000,65535.0000,4924.2000,3502.4000,0.0000,0.0000,0.0000,
207,463.78,21561.97,-21561.97,1432.8000,65535.0000,4988.0000,3555.2000,0.0000,0.0000,0.0000,
208,464.31,21537.15,-21537.15,1456.2000,65535.0000,5021.4000,3565.2000,0.0000,0.0000,0.0000,
209,464.85,21512.39,-21512.39,1428.2000,65535.0000,5060.8000,3632.6000,0.0000,0.0000,0.0000,
210,465.38,21487.70,-21487.70,1422.4000,65535.0000,5144.2000,3721.8000,0.0000,0.0000,0.0000,
211,465.92,21463.07,-21463.07,1432.8000,65535.0000,5278.2000,3845.4000,0.0000,0.0000,0.0000,
212,466.45,21438.51,-21438.51,1419.0000,65535.0000,5263.2000,3844.2000,0.0000,0.0000,0.0000,
213,466.98,21414.02,-21414.02,1419.4000,65535.0000,5340.6000,3921.2000,0.0000,0.0000,0.0000,
214,467.52,21389.59,-21389.59,1391.0000,65535.0000,5409.4000,4018.4000,0.0000,0.0000,0.0000,
215,468.05,21365.23,-21365.23,1426.8000,65535.0000,5519.2000,4092.4000,0.0000,0.0000,0.0000,
216,468.58,21340.93,-21340.93,1433.8000,65535.0000,5506.8000,4073.0000,0.0000,0.0000,0.0000,
217,469.12,21316.70,-21316.70,1437.4000,65535.0000,5605.6000,4168.2000,0.0000,0.0000,0.0000,
218,469.65,21292.53,-21292.53,1416.8000,65535.0000,5732.8000,4316.0000,0.0000,0.0000,0.0000,
219,470.18,21268.42,-21268.42,1411.2000,65535.0000,5793.2000,4382.0000,0.0000,0.0000,0.0000,
220,470.71,21244.38,-21244.38,1437.2000,65535.0000,5883.8000,4446.6000,0.0000,0.0000,0.0000,
221,471.24,21220.40,-21220.40,1404.2000,65535.0000,5981.6000,4577.4000,0.0000,0.0000,0.0000,
222,471.78,21196.49,-21196.49,1411.2000,65535.0000,6135.6000,4724.4000,0.0000,0.0000,0.0000,
223,472.31,21172.64,-21172.64,1430.0000,65535.0000,6166.2000,4736.2000,0.0000,0.0000,0.0000,
224,472.84,21148.85,-21148.85,1415.4000,65535.0000,6334.0000,4918.6000,0.0000,0.0000,0.0000,
225,473.37,21125.12,-21125.12,1435.6000,65535.0000,6450.0000,5014.4000,0.0000,0.0000,0.0000,
226,473.90,21101.46,-21101.46,1446.6000,65535.0000,6472.2000,5025.6000,0.0000,0.0000,0.0000,
227,474.43,21077.86,-21077.86,1448.2000,65535.0000,6601.2000,5153.0000,0.0000,0.0000,0.0000,
228,474.96,21054.32,-21054.32,1431.0000,65535.0000,6744.2000,5313.2000,0.0000,0.0000,0.0000,
229,475.49,21030.84,-21030.84,1400.6000,65535.0000,6940.6000,5540.0000,0.0000,0.0000,0.0000,
230,476.02,21007.43,-21007.43,1437.2000,65535.0000,7157.2000,5720.0000,0.0000,0.0000,0.0000,
231,476.55,20984.07,-20984.07,1420.4000,65535.0000,7183.8000,5763.4000,0.0000,0.0000,0.0000,
232,477.08,20960.78,-20960.78,1425.6000,65535.0000,7335.0000,5909.4000,0.0000,0.0000,0.0000,
233,477.61,20937.54,-20937.54,1423.0000,65535.0000,7588.0000,6165.0000,0.0000,0.0000,0.0000,
234,478.14,20914.37,-20914.37,1438.4000,65535.0000,7733.6000,6295.2000,0.0000,0.0000,0.0000,
235,478.67,20891.26,-20891.26,1406.2000,65535.0000,7872.4000,6466.2000,0.0000,0.0000,0.0000,
236,479.20,20868.20,-20868.20,1424.4000,65535.0000,8159.2000,6734.8000,0.0000,0.0000,0.0000,
237,479.73,20845.21,-20845.21,1430.8000,65535.0000,8284.4000,6853.6000,0.0000,0.0000,0.0000,
238,480.25,20822.28,-20822.28,1432.8000,65535.0000,8445.4000,7012.6000,0.0000,0.0000,0.0000,
239,480.78,20799.40,-20799.40,1433.8000,65535.0000,8707.2000,7273.4000,0.0000,0.0000,0.0000,
240,481.31,20776.59,-20776.59,1436.6000,65535.0000,8916.8000,7480.2000,0.0000,0.0000,0.0000,
241,481.84,20753.83,-20753.83,1416.6000,65535.0000,8980.2000,7563.6000,0.0000,0.0000,0.0000,
242,482.37,20731.14,-20731.14,1407.6000,65535.0000,9221.6000,7814.0000,0.0000,0.0000,0.0000,
243,482.89,20708.50,-20708.50,1427.8000,65535.0000,9487.2000,8059.4000,0.0000,0.0000,0.0000,
244,483.42,20685.92,-20685.92,1435.2000,65535.0000,9755.4000,8320.2000,0.0000,0.0000,0.0000,
245,483.95,20663.40,-20663.40,1419.6000,65535.0000,9890.8000,8471.2000,0.0000,0.0000,0.0000,
246,484.47,20640.93,-20640.93,1428.8000,65535.0000,10096.4000,8667.6000,0.0000,0.0000,0.0000,
247,485.00,20618.52,-20618.52,1435.2000,65535.0000,10232.8000,8797.6000,0.0000,0.0000,0.0000,
248,485.53,20596.17,-20596.17,1412.8000,65535.0000,10524.4000,9111.6000,0.0000,0.0000,0.0000,
249,486.05,20573.88,-20573.88,1407.4000,65535.0000,10718.0000,9310.6000,0.0000,0.0000,0.0000,
250,486.58,20551.65,-20551.65,1418.8000,65535.0000,10891.0000,9472.2000,0.0000,0.0000,0.0000,
251,487.10,20529.47,-20529.47,1424.0000,65535.0000,11122.6000,9698.6000,0.0000,0.0000,0.0000,
252,487.63,20507.35,-20507.35,1381.4000,65535.0000,11306.4000,9925.0000,0.0000,0.0000,0.0000,
253,488.16,20485.28,-20485.28,1395.2000,65535.0000,11478.4000,10083.2000,0.0000,0.0000,0.0000,
254,488.68,20463.27,-20463.27,1403.0000,65535.0000,11691.2000,10288.2000,0.0000,0.0000,0.0000,
255,489.21,20441.32,-20441.32,1427.8000,65535.0000,11875.0000,10447.2000,0.0000,0.0000,0.0000,
256,489.73,20419.42,-20419.42,1418.8000,65535.0000,12029.2000,10610.4000,0.0000,0.0000,0.0000,
257,490.25,20397.57,-20397.57,1443.2000,65535.0000,12085.4000,10642.2000,0.0000,0.0000,0.0000,
258,490.78,20375.79,-20375.79,1419.4000,65535.0000,12252.4000,10833.0000,0.0000,0.0000,0.0000,
259,491.30,20354.05,-20354.05,1410.8000,65535.0000,12438.6000,11027.8000,0.0000,0.0000,0.0000,
260,491.83,20332.38,-20332.38,1441.2000,65535.0000,12515.2000,11074.0000,0.0000,0.0000,0.0000,
261,492.35,20310.75,-20310.75,1424.2000,65535.0000,12693.0000,11268.8000,0.0000,0.0000,0.0000,
262,492.87,20289.19,-20289.19,1423.4000,65535.0000,12863.2000,11439.8000,0.0000,0.0000,0.0000,
263,493.40,20267.67,-20267.67,1426.8000,65535.0000,12965.6000,11538.8000,0.0000,0.0000,0.0000,
264,493.92,20246.21,-20246.21,1408.8000,65535.0000,13110.4000,11701.6000,0.0000,0.0000,0.0000,
265,494.44,20224.80,-20224.80,1417.0000,65535.0000,13355.2000,11938.2000,0.0000,0.0000,0.0000,
266,494.96,20203.45,-20203.45,1444.8000,65535.0000,13340.0000,11895.2000,0.0000,0.0000,0.0000,
267,495.49,20182.15,-20182.15,1436.6000,65535.0000,13506.4000,12069.8000,0.0000,0.0000,0.0000,
268,496.01,20160.91,-20160.91,1399.4000,65535.0000,13673.8000,12274.4000,0.0000,0.0000,0.0000,
269,496.53,20139.71,-20139.71,1413.0000,65535.0000,13785.4000,12372.4000,0.0000,0.0000,0.0000,
270,497.05,20118.57,-20118.57,1431.8000,65535.0000,13937.4000,12505.6000,0.0000,0.0000,0.0000,
271,497.57,20097.49,-20097.49,1404.8000,65535.0000,13987.4000,12582.6000,0.0000,0.0000,0.0000,
272,498.10,20076.45,-20076.45,1426.2000,65535.0000,14087.4000,12661.2000,0.0000,0.0000,0.0000,
273,498.62,20055.47,-20055.47,1419.4000,65535.0000,14244.8000,12825.4000,0.0000,0.0000,0.0000,
274,499.14,20034.54,-20034.54,1433.6000,65535.0000,14433.8000,13000.2000,0.0000,0.0000,0.0000,
275,499.66,20013.66,-20013.66,1442.0000,65535.0000,14511.8000,13069.8000,0.0000,0.0000,0.0000,
276,500.18,19992.83,-19992.83,1426.8000,65535.0000,14565.8000,13139.0000,0.0000,0.0000,0.0000,
277,500.70,19972.06,-19972.06,1437.2000,65535.0000,14696.4000,13259.2000,0.0000,0.0000,0.0000,
278,501.22,19951.34,-19951.34,1438.6000,65535.0000,14952.6000,13514.0000,0.0000,0.0000,0.0000,
279,501.74,19930.66,-19930.66,1437.4000,65535.0000,15053.8000,13616.4000,0.0000,0.0000,0.0000,
280,502.26,19910.04,-19910.04,1435.2000,65535.0000,15180.8000,13745.6000,0.0000,0.0000,0.0000,
281,502.78,19889.47,-19889.47,1431.0000,65535.0000,15216.2000,13785.2000,0.0000,0.0000,0.0000,
282,503.30,19868.95,-19868.95,1443.6000,65535.0000,15279.2000,13835.6000,0.0000,0.0000,0.0000,
283,503.82,19848.48,-19848.48,1424.0000,65535.0000,15463.4000,14039.4000,0.0000,0.0000,0.0000,
284,504.34,19828.06,-19828.06,1421.6000,65535.0000,15682.2000,14260.6000,0.0000,0.0000,0.0000,
285,504.85,19807.69,-19807.69,1397.8000,65535.0000,15668.0000,14270.2000,0.0000,0.0000,0.0000,
286,505.37,19787.38,-19787.38,1414.8000,65535.0000,15869.6000,14454.8000,0.0000,0.0000,0.0000,
287,505.89,19767.11,-19767.11,1418.4000,65535.0000,16069.8000,14651.4000,0.0000,0.0000,0.0000,
288,506.41,19746.89,-19746.89,1436.4000,65535.0000,16063.2000,14626.8000,0.0000,0.0000,0.0000,
289,506.93,19726.72,-19726.72,1433.4000,65535.0000,16309.8000,14876.4000,0.0000,0.0000,0.0000,
290,507.44,19706.59,-19706.59,1396.8000,65535.0000,16532.2000,15135.4000,0.0000,0.0000,0.0000,
291,507.96,19686.52,-19686.52,1397.8000,65535.0000,16779.0000,15381.2000,0.0000,0.0000,0.0000,
292,508.48,19666.50,-19666.50,1412.6000,65535.0000,16939.0000,15526.4000,0.0000,0.0000,0.0000,
293,509.00,19646.52,-19646.52,1421.6000,65535.0000,16980.2000,15558.6000,0.0000,0.0000,0.0000,
294,509.51,19626.60,-19626.60,1441.2000,65535.0000,17180.0000,15738.8000,0.0000,0.0000,0.0000,
295,510.03,19606.72,-19606.72,1414.2000,65535.0000,17298.4000,15884.2000,0.0000,0.0000,0.0000,
296,510.55,19586.89,-19586.89,1414.0000,65535.0000,17551.8000,16137.8000,0.0000,0.0000,0.0000,
297,511.06,19567.11,-19567.11,1403.6000,65535.0000,17834.8000,16431.2000,0.0000,0.0000,0.0000,
298,511.58,19547.38,-19547.38,1404.2000,65535.0000,17959.0000,16554.8000,0.0000,0.0000,0.0000,
299,512.09,19527.69,-19527.69,1415.8000,65535.0000,18161.8000,16746.0000,0.0000,0.0000,0.0000,
300,512.61,19508.05,-19508.05,1409.4000,65535.0000,18403.0000,16993.6000,0.0000,0.0000,0.0000,
301,513.12,19488.46,-19488.46,1438.6000,65535.0000,18465.2000,17026.6000,0.0000,0.0000,0.0000,
302,513.64,19468.92,-19468.92,1465.0000,65535.0000,18633.0000,17168.0000,0.0000,0.0000,0.0000,
303,514.15,19449.42,-19449.42,1425.4000,65535.0000,18809.4000,17384.0000,0.0000,0.0000,0.0000,
304,514.67,19429.97,-19429.97,1437.0000,65535.0000,18991.2000,17554.2000,0.0000,0.0000,0.0000,
305,515.18,19410.56,-19410.56,1437.4000,65535.0000,19292.6000,17855.2000,0.0000,0.0000,0.0000,
306,515.70,19391.21,-19391.21,1443.0000,65535.0000,19323.0000,17880.0000,0.0000,0.0000,0.0000,
307,516.21,19371.90,-19371.90,1427.0000,65535.0000,19516.6000,18089.6000,0.0000,0.0000,0.0000,
308,516.73,19352.63,-19352.63,1430.2000,65535.0000,19969.6000,18539.4000,0.0000,0.0000,0.0000,
309,517.24,19333.41,-19333.41,1420.8000,65535.0000,20022.6000,18601.8000,0.0000,0.0000,0.0000,
310,517.75,19314.24,-19314.24,1414.0000,65535.0000,20148.0000,18734.0000,0.0000,0.0000,0.0000,
311,518.27,19295.11,-19295.11,1419.0000,65535.0000,20451.6000,19032.6000,0.0000,0.0000,0.0000,
312,518.78,19276.03,-19276.03,1408.0000,65535.0000,20534.8000,19126.8000,0.0000,0.0000,0.0000,
313,519.29,19257.00,-19257.00,1434.4000,65535.0000,20786.8000,19352.4000,0.0000,0.0000,0.0000,
314,519.80,19238.01,-19238.01,1431.6000,65535.0000,20955.8000,19524.2000,0.0000,0.0000,0.0000,
315,520.32,19219.06,-19219.06,1416.0000,65535.0000,21061.6000,19645.6000,0.0000,0.0000,0.0000,
316,520.83,19200.16,-19200.16,1443.0000,65535.0000,21400.8000,19957.8000,0.0000,0.0000,0.0000,
317,521.34,19181.30,-19181.30,1446.0000,65535.0000,21448.6000,20002.6000,0.0000,0.0000,0.0000,
318,521.85,19162.49,-19162.49,1437.0000,65535.0000,21764.8000,20327.8000,0.0000,0.0000,0.0000,
319,522.36,19143.73,-19143.73,1415.4000,65535.0000,21963.6000,20548.2000,0.0000,0.0000,0.0000,
320,522.88,19125.00,-19125.00,1406.4000,65535.0000,22149.2000,20742.8000,0.0000,0.0000,0.0000,
321,523.39,19106.33,-19106.33,1423.6000,65535.0000,22325.6000,20902.0000,0.0000,0.0000,0.0000,
322,523.90,19087.69,-19087.69,1428.8000,65535.0000,22563.0000,21134.2000,0.0000,0.0000,0.0000,
323,524.41,19069.10,-19069.10,1415.0000,65535.0000,22826.4000,21411.4000,0.0000,0.0000,0.0000,
324,524.92,19050.55,-19050.55,1404.6000,65535.0000,22884.0000,21479.4000,0.0000,0.0000,0.0000,
325,525.43,19032.05,-19032.05,1445.8000,65535.0000,23148.2000,21702.4000,0.0000,0.0000,0.0000,
326,525.94,19013.59,-19013.59,1441.2000,65535.0000,23262.4000,21821.2000,0.0000,0.0000,0.0000,
327,526.45,18995.17,-18995.17,1444.2000,65535.0000,23436.0000,21991.8000,0.0000,0.0000,0.0000,
328,526.96,18976.80,-18976.80,1423.8000,65535.0000,23649.0000,22225.2000,0.0000,0.0000,0.0000,
329,527.47,18958.47,-18958.47,1427.8000,65535.0000,23716.4000,22288.6000,0.0000,0.0000,0.0000,
330,527.98,18940.18,-18940.18,1437.8000,65535.0000,24061.4000,22623.6000,0.0000,0.0000,0.0000,
331,528.49,18921.94,-18921.94,1433.2000,65535.0000,24122.0000,22688.8000,0.0000,0.0000,0.0000,
332,529.00,18903.74,-18903.74,1425.8000,65535.0000,24149.4000,22723.6000,0.0000,0.0000,0.0000,
333,529.50,18885.58,-18885.58,1426.0000,65535.0000,24175.0000,22749.0000,0.0000,0.0000,0.0000,
334,530.01,18867.46,-18867.46,1431.2000,65535.0000,24335.8000,22904.6000,0.0000,0.0000,0.0000,
335,530.52,18849.38,-18849.38,1430.8000,65535.0000,24487.6000,23056.8000,0.0000,0.0000,0.0000,
336,531.03,18831.35,-18831.35,1417.6000,65535.0000,24671.0000,23253.4000,0.0000,0.0000,0.0000,
337,531.54,18813.36,-18813.36,1449.8000,65535.0000,24717.8000,23268.0000,0.0000,0.0000,0.0000,
338,532.04,18795.41,-18795.41,1435.2000,65535.0000,24742.2000,23307.0000,0.0000,0.0000,0.0000,
339,532.55,18777.50,-18777.50,1414.8000,65535.0000,24874.4000,23459.6000,0.0000,0.0000,0.0000,
340,533.06,18759.63,-18759.63,1441.2000,65535.0000,25091.6000,23650.4000,0.0000,0.0000,0.0000,
341,533.57,18741.80,-18741.80,1436.8000,65535.0000,25124.8000,23688.0000,0.0000,0.0000,0.0000,
342,534.07,18724.02,-18724.02,1395.8000,65535.0000,25186.8000,23791.0000,0.0000,0.0000,0.0000,
343,534.58,18706.28,-18706.28,1395.2000,65535.0000,25224.2000,23829.0000,0.0000,0.0000,0.0000,
344,535.09,18688.57,-18688.57,1410.4000,65535.0000,25334.6000,23924.2000,0.0000,0.0000,0.0000,
345,535.59,18670.91,-18670.91,1419.4000,65535.0000,25532.4000,24113.0000,0.0000,0.0000,0.0000,
346,536.10,18653.29,-18653.29,1415.0000,65535.0000,25580.2000,24165.2000,0.0000,0.0000,0.0000,
347,536.60,18635.71,-18635.71,1423.8000,65535.0000,25588.6000,24164.8000,0.0000,0.0000,0.0000,
348,537.11,18618.17,-18618.17,1430.2000,65535.0000,25566.0000,24135.8000,0.0000,0.0000,0.0000,
349,537.62,18600.67,-18600.67,1416.4000,65535.0000,25785.2000,24368.8000,0.0000,0.0000,0.0000,
350,538.12,18583.21,-18583.21,1423.8000,65535.0000,25910.6000,24486.8000,0.0000,0.0000,0.0000,
351,538.63,18565.78,-18565.78,1418.4000,65535.0000,25937.6000,24519.2000,0.0000,0.0000,0.0000,
352,539.13,18548.40,-18548.40,1427.2000,65535.0000,26051.2000,24624.0000,0.0000,0.0000,0.0000,
353,539.63,18531.06,-18531.06,1420.2000,65535.0000,26198.2000,24778.0000,0.0000,0.0000,0.0000,
354,540.14,18513.76,-18513.76,1424.2000,65535.0000,26367.2000,24943.0000,0.0000,0.0000,0.0000,
355,540.64,18496.50,-18496.50,1433.8000,65535.0000,26437.6000,25003.8000,0.0000,0.0000,0.0000,
356,541.15,18479.28,-18479.28,1415.8000,65535.0000,26700.4000,25284.6000,0.0000,0.0000,0.0000,
357,541.65,18462.09,-18462.09,1432.4000,65535.0000,26846.6000,25414.2000,0.0000,0.0000,0.0000,
358,542.15,18444.95,-18444.95,1429.2000,65535.0000,26813.0000,25383.8000,0.0000,0.0000,0.0000,
359,542.66,18427.84,-18427.84,1408.8000,65535.0000,26718.2000,25309.4000,0.0000,0.0000,0.0000,
360,543.16,18410.77,-18410.77,1452.8000,65535.0000,27049.8000,25597.0000,0.0000,0.0000,0.0000,
361,543.66,18393.74,-18393.74,1433.0000,65535.0000,27167.2000,25734.2000,0.0000,0.0000,0.0000,
362,544.17,18376.75,-18376.75,1435.8000,65535.0000,27180.2000,25744.4000,0.0000,0.0000,0.0000,
363,544.67,18359.80,-18359.80,1468.2000,65535.0000,27387.2000,25919.0000,0.0000,0.0000,0.0000,
364,545.17,18342.89,-18342.89,1437.0000,65535.0000,27559.2000,26122.2000,0.0000,0.0000,0.0000,
365,545.67,18326.01,-18326.01,1443.2000,65535.0000,27741.0000,26297.8000,0.0000,0.0000,0.0000,
366,546.17,18309.17,-18309.17,1455.2000,65535.0000,27928.0000,26472.8000,0.0000,0.0000,0.0000,
367,546.68,18292.37,-18292.37,1437.6000,65535.0000,27961.6000,26524.0000,0.0000,0.0000,0.0000,
368,547.18,18275.61,-18275.61,1448.2000,65535.0000,27995.6000,26547.4000,0.0000,0.0000,0.0000,
369,547.68,18258.89,-18258.89,1452.4000,65535.0000,28239.0000,26786.6000,0.0000,0.0000,0.0000,
370,548.18,18242.20,-18242.20,1429.8000,65535.0000,28540.6000,27110.8000,0.0000,0.0000,0.0000,
371,548.68,18225.55,-18225.55,1454.8000,65535.0000,28684.6000,27229.8000,0.0000,0.0000,0.0000,
372,549.18,18208.94,-18208.94,1412.8000,65535.0000,28838.8000,27426.0000,0.0000,0.0000,0.0000,
373,549.68,18192.37,-18192.37,1416.8000,65535.0000,28746.8000,27330.0000,0.0000,0.0000,0.0000,
374,550.18,18175.83,-18175.83,1417.4000,65535.0000,28958.6000,27541.2000,0.0000,0.0000,0.0000,
375,550.68,18159.33,-18159.33,1437.8000,65535.0000,29288.2000,27850.4000,0.0000,0.0000,0.0000,
376,551.18,18142.86,-18142.86,1389.6000,65535.0000,29029.8000,27640.2000,0.0000,0.0000,0.0000,
377,551.68,18126.43,-18126.43,1413.4000,65535.0000,29427.8000,28014.4000,0.0000,0.0000,0.0000,
378,552.18,18110.04,-18110.04,1414.6000,65535.0000,29623.4000,28208.8000,0.0000,0.0000,0.0000,
379,552.68,18093.69,-18093.69,1416.2000,65535.0000,29826.4000,28410.2000,0.0000,0.0000,0.0000,
380,553.18,18077.37,-18077.37,1414.6000,65535.0000,29767.0000,28352.4000,0.0000,0.0000,0.0000,
381,553.68,18061.09,-18061.09,1434.4000,65535.0000,30015.8000,28581.4000,0.0000,0.0000,0.0000,
382,554.18,18044.84,-18044.84,1418.6000,65535.0000,30278.0000,28859.4000,0.0000,0.0000,0.0000,
383,554.67,18028.63,-18028.63,1392.0000,65535.0000,30277.0000,28885.0000,0.0000,0.0000,0.0000,
384,555.17,18012.46,-18012.46,1426.6000,65535.0000,30508.8000,29082.2000,0.0000,0.0000,0.0000,
385,555.67,17996.32,-17996.32,1444.2000,65535.0000,30565.2000,29121.0000,0.0000,0.0000,0.0000,
386,556.17,17980.22,-17980.22,1437.6000,65535.0000,31064.6000,29627.0000,0.0000,0.0000,0.0000,
387,556.66,17964.15,-17964.15,1421.2000,65535.0000,31293.6000,29872.4000,0.0000,0.0000,0.0000,
388,557.16,17948.12,-17948.12,1406.4000,65535.0000,31310.2000,29903.8000,0.0000,0.0000,0.0000,
389,557.66,17932.12,-17932.12,1413.6000,65535.0000,31604.8000,30191.2000,0.0000,0.0000,0.0000,
390,558.16,17916.16,-17916.16,1402.6000,65535.0000,31745.4000,30342.8000,0.0000,0.0000,0.0000,
391,558.65,17900.23,-17900.23,1420.8000,65535.0000,32092.8000,30672.0000,0.0000,0.0000,0.0000,
392,559.15,17884.34,-17884.34,1454.0000,65535.0000,32395.2000,30941.2000,0.0000,0.0000,0.0000,
393,559.64,17868.48,-17868.48,1427.2000,65535.0000,32460.0000,31032.8000,0.0000,0.0000,0.0000,
394,560.14,17852.66,-17852.66,1441.6000,65535.0000,32874.0000,31432.4000,0.0000,0.0000,0.0000,
395,560.64,17836.87,-17836.87,1423.4000,65535.0000,32932.6000,31509.2000,0.0000,0.0000,0.0000,
396,561.13,17821.12,-17821.12,1424.6000,65535.0000,33264.2000,31839.6000,0.0000,0.0000,0.0000,
397,561.63,17805.40,-17805.40,1400.6000,65535.0000,33442.6000,32042.0000,0.0000,0.0000,0.0000,
398,562.12,17789.72,-17789.72,1422.4000,65535.0000,33968.8000,32546.4000,0.0000,0.0000,0.0000,
399,562.62,17774.07,-17774.07,1404.8000,65535.0000,33908.2000,32503.4000,0.0000,0.0000,0.0000,
400,563.11,17758.45,-17758.45,1427.0000,65535.0000,34320.6000,32893.6000,0.0000,0.0000,0.0000,
401,563.61,17742.87,-17742.87,1429.0000,65535.0000,34450.6000,33021.6000,0.0000,0.0000,0.0000,
402,564.10,17727.32,-17727.32,1425.4000,65535.0000,34695.6000,33270.2000,0.0000,0.0000,0.0000,
403,564.60,17711.81,-17711.81,1437.4000,65535.0000,34519.6000,33082.2000,0.0000,0.0000,0.0000,
404,565.09,17696.33,-17696.33,1422.0000,65535.0000,34876.6000,33454.6000,0.0000,0.0000,0.0000,
405,565.58,17680.88,-17680.88,1411.2000,65535.0000,35110.0000,33698.8000,0.0000,0.0000,0.0000,
406,566.08,17665.47,-17665.47,1417.0000,65535.0000,34954.4000,33537.4000,0.0000,0.0000,0.0000,
407,566.57,17650.09,-17650.09,1435.0000,65535.0000,35329.0000,33894.0000,0.0000,0.0000,0.0000,
408,567.06,17634.74,-17634.74,1414.2000,65535.0000,35358.4000,33944.2000,0.0000,0.0000,0.0000,
409,567.56,17619.42,-17619.42,1421.2000,65535.0000,35358.2000,33937.0000,0.0000,0.0000,0.0000,
410,568.05,17604.14,-17604.14,1443.4000,65535.0000,35829.0000,34385.6000,0.0000,0.0000,0.0000,
411,568.54,17588.90,-17588.90,1439.6000,65535.0000,35901.4000,34461.8000,0.0000,0.0000,0.0000,
412,569.03,17573.68,-17573.68,1412.6000,65535.0000,36089.2000,34676.6000,0.0000,0.0000,0.0000,
413,569.52,17558.50,-17558.50,1421.2000,65535.0000,36228.0000,34806.8000,0.0000,0.0000,0.0000,
414,570.02,17543.35,-17543.35,1413.0000,65535.0000,36348.2000,34935.2000,0.0000,0.0000,0.0000,
415,570.51,17528.23,-17528.23,1421.4000,65535.0000,36394.0000,34972.6000,0.0000,0.0000,0.0000,
416,571.00,17513.15,-17513.15,1400.8000,65535.0000,36855.0000,35454.2000,0.0000,0.0000,0.0000,
417,571.49,17498.09,-17498.09,1384.4000,65535.0000,36789.8000,35405.4000,0.0000,0.0000,0.0000,
418,571.98,17483.07,-17483.07,1418.0000,65535.0000,36671.2000,35253.2000,0.0000,0.0000,0.0000,
419,572.47,17468.08,-17468.08,1421.4000,65535.0000,36743.8000,35322.4000,0.0000,0.0000,0.0000,
420,572.96,17453.13,-17453.13,1417.2000,65535.0000,37000.0000,35582.8000,0.0000,0.0000,0.0000,
421,573.45,17438.20,-17438.20,1420.2000,65535.0000,36882.0000,35461.8000,0.0000,0.0000,0.0000,
422,573.94,17423.31,-17423.31,1413.0000,65535.0000,37237.4000,35824.4000,0.0000,0.0000,0.0000,
423,574.43,17408.45,-17408.45,1417.4000,65535.0000,37520.8000,36103.4000,0.0000,0.0000,0.0000,
424,574.92,17393.62,-17393.62,1405.0000,65535.0000,37389.0000,35984.0000,0.0000,0.0000,0.0000,
425,575.41,17378.82,-17378.82,1430.2000,65535.0000,37308.8000,35878.6000,0.0000,0.0000,0.0000,
426,575.90,17364.06,-17364.06,1426.2000,65535.0000,37446.0000,36019.8000,0.0000,0.0000,0.0000,
427,576.39,17349.32,-17349.32,1430.8000,65535.0000,37450.6000,36019.8000,0.0000,0.0000,0.0000,
428,576.88,17334.62,-17334.62,1433.4000,65535.0000,37652.2000,36218.8000,0.0000,0.0000,0.0000,
429,577.37,17319.95,-17319.95,1415.2000,65535.0000,37600.4000,36185.2000,0.0000,0.0000,0.0000,
430,577.86,17305.31,-17305.31,1436.0000,65535.0000,37621.2000,36185.2000,0.0000,0.0000,0.0000,
431,578.35,17290.70,-17290.70,1431.2000,65535.0000,38034.6000,36603.4000,0.0000,0.0000,0.0000,
432,578.83,17276.12,-17276.12,1416.8000,65535.0000,38123.2000,36706.4000,0.0000,0.0000,0.0000,
433,579.32,17261.57,-17261.57,1405.2000,65535.0000,38214.0000,36808.8000,0.0000,0.0000,0.0000,
434,579.81,17247.05,-17247.05,1431.4000,65535.0000,38185.0000,36753.6000,0.0000,0.0000,0.0000,
435,580.30,17232.56,-17232.56,1423.2000,65535.0000,38260.6000,36837.4000,0.0000,0.0000,0.0000,
436,580.78,17218.10,-17218.10,1431.4000,65535.0000,38244.6000,36813.2000,0.0000,0.0000,0.0000,
437,581.27,17203.68,-17203.68,1427.0000,65535.0000,38249.2000,36822.2000,0.0000,0.0000,0.0000,
438,581.76,17189.28,-17189.28,1427.8000,65535.0000,38555.4000,37127.6000,0.0000,0.0000,0.0000,
439,582.24,17174.92,-17174.92,1424.4000,65535.0000,38579.4000,37155.0000,0.0000,0.0000,0.0000,
440,582.73,17160.58,-17160.58,1438.6000,65535.0000,38439.4000,37000.8000,0.0000,0.0000,0.0000,
441,583.22,17146.27,-17146.27,1424.0000,65535.0000,38615.2000,37191.2000,0.0000,0.0000,0.0000,
442,583.70,17132.00,-17132.00,1433.0000,65535.0000,38448.4000,37015.4000,0.0000,0.0000,0.0000,
443,584.19,17117.75,-17117.75,1407.6000,65535.0000,38347.2000,36939.6000,0.0000,0.0000,0.0000,
444,584.67,17103.54,-17103.54,1438.8000,65535.0000,38927.0000,37488.2000,0.0000,0.0000,0.0000,
445,585.16,17089.35,-17089.35,1417.6000,65535.0000,38829.2000,37411.6000,0.0000,0.0000,0.0000,
446,585.64,17075.19,-17075.19,1418.6000,65535.0000,38729.2000,37310.6000,0.0000,0.0000,0.0000,
447,586.13,17061.07,-17061.07,1405.8000,65535.0000,38979.2000,37573.4000,0.0000,0.0000,0.0000,
448,586.61,17046.97,-17046.97,1438.6000,65535.0000,38926.6000,37488.0000,0.0000,0.0000,0.0000,
449,587.10,17032.90,-17032.90,1414.8000,65535.0000,38928.4000,37513.6000,0.0000,0.0000,0.0000,
450,587.58,17018.86,-17018.86,1424.6000,65535.0000,39086.0000,37661.4000,0.0000,0.0000,0.0000,
451,588.07,17004.85,-17004.85,1424.0000,65535.0000,39247.4000,37823.4000,0.0000,0.0000,0.0000,
452,588.55,16990.87,-16990.87,1449.4000,65535.0000,39059.8000,37610.4000,0.0000,0.0000,0.0000,
453,589.04,16976.92,-16976.92,1434.0000,65535.0000,39116.4000,37682.4000,0.0000,0.0000,0.0000,
454,589.52,16962.99,-16962.99,1433.2000,65535.0000,39636.4000,38203.2000,0.0000,0.0000,0.0000,
455,590.00,16949.10,-16949.10,1406.8000,65535.0000,39490.0000,38083.2000,0.0000,0.0000,0.0000,
456,590.48,16935.23,-16935.23,1403.0000,65535.0000,39642.6000,38239.6000,0.0000,0.0000,0.0000,
457,590.97,16921.40,-16921.40,1426.0000,65535.0000,40005.0000,38579.0000,0.0000,0.0000,0.0000,
458,591.45,16907.59,-16907.59,1427.4000,65535.0000,40076.8000,38649.4000,0.0000,0.0000,0.0000,
459,591.93,16893.81,-16893.81,1420.6000,65535.0000,39896.8000,38476.2000,0.0000,0.0000,0.0000,
460,592.42,16880.06,-16880.06,1416.2000,65535.0000,39869.8000,38453.6000,0.0000,0.0000,0.0000,
461,592.90,16866.33,-16866.33,1406.2000,65535.0000,40135.2000,38729.0000,0.0000,0.0000,0.0000,
462,593.38,16852.64,-16852.64,1408.8000,65535.0000,40064.4000,38655.6000,0.0000,0.0000,0.0000,
463,593.86,16838.97,-16838.97,1426.0000,65535.0000,40362.4000,38936.4000,0.0000,0.0000,0.0000,
464,594.34,16825.33,-16825.33,1407.4000,65535.0000,39894.8000,38487.4000,0.0000,0.0000,0.0000,
465,594.82,16811.72,-16811.72,1416.6000,65535.0000,40341.4000,38924.8000,0.0000,0.0000,0.0000,
466,595.30,16798.14,-16798.14,1409.2000,65535.0000,40535.2000,39126.0000,0.0000,0.0000,0.0000,
467,595.78,16784.58,-16784.58,1428.0000,65535.0000,40694.0000,39266.0000,0.0000,0.0000,0.0000,
468,596.27,16771.05,-16771.05,1418.4000,65535.0000,40947.6000,39529.2000,0.0000,0.0000,0.0000,
469,596.75,16757.55,-16757.55,1444.2000,65535.0000,41002.2000,39558.0000,0.0000,0.0000,0.0000,
470,597.23,16744.08,-16744.08,1406.8000,65535.0000,40804.6000,39397.8000,0.0000,0.0000,0.0000,
471,597.71,16730.64,-16730.64,1396.6000,65535.0000,40948.2000,39551.6000,0.0000,0.0000,0.0000,
472,598.19,16717.22,-16717.22,1408.2000,65535.0000,41282.6000,39874.4000,0.0000,0.0000,0.0000,
473,598.67,16703.83,-16703.83,1418.4000,65535.0000,41470.8000,40052.4000,0.0000,0.0000,0.0000,
474,599.14,16690.47,-16690.47,1429.2000,65535.0000,41496.4000,40067.2000,0.0000,0.0000,0.0000,
475,599.62,16677.13,-16677.13,1384.0000,65535.0000,41400.6000,40016.6000,0.0000,0.0000,0.0000,
476,600.10,16663.82,-16663.82,1418.4000,65535.0000,41606.2000,40187.8000,0.0000,0.0000,0.0000,
477,600.58,16650.54,-16650.54,1416.6000,65535.0000,41684.4000,40267.8000,0.0000,0.0000,0.0000,
478,601.06,16637.29,-16637.29,1428.0000,65535.0000,41920.2000,40492.2000,0.0000,0.0000,0.0000,
479,601.54,16624.06,-16624.06,1417.2000,65535.0000,42223.4000,40806.2000,0.0000,0.0000,0.0000,
480,602.02,16610.86,-16610.86,1437.2000,65535.0000,42264.2000,40827.0000,0.0000,0.0000,0.0000,
481,602.49,16597.68,-16597.68,1415.4000,65535.0000,42352.4000,40937.0000,0.0000,0.0000,0.0000,
482,602.97,16584.54,-16584.54,1394.8000,65535.0000,42594.6000,41199.8000,0.0000,0.0000,0.0000,
483,603.45,16571.42,-16571.42,1394.4000,65535.0000,42583.6000,41189.2000,0.0000,0.0000,0.0000,
484,603.93,16558.32,-16558.32,1403.8000,65535.0000,42500.2000,41096.4000,0.0000,0.0000,0.0000,
485,604.40,16545.25,-16545.25,1426.6000,65535.0000,42392.6000,40966.0000,0.0000,0.0000,0.0000,
486,604.88,16532.21,-16532.21,1406.4000,65535.0000,42825.4000,41419.0000,0.0000,0.0000,0.0000,
487,605.36,16519.20,-16519.20,1434.6000,65535.0000,42763.8000,41329.2000,0.0000,0.0000,0.0000,
488,605.83,16506.21,-16506.21,1421.4000,65535.0000,42808.4000,41387.0000,0.0000,0.0000,0.0000,
489,606.31,16493.24,-16493.24,1449.2000,65535.0000,42948.8000,41499.6000,0.0000,0.0000,0.0000,
490,606.78,16480.31,-16480.31,1412.2000,65535.0000,43012.4000,41600.2000,0.0000,0.0000,0.0000,
491,607.26,16467.39,-16467.39,1422.0000,65535.0000,43386.2000,41964.2000,0.0000,0.0000,0.0000,
492,607.74,16454.51,-16454.51,1444.6000,65535.0000,43458.4000,42013.8000,0.0000,0.0000,0.0000,
493,608.21,16441.65,-16441.65,1428.2000,65535.0000,43509.6000,42081.4000,0.0000,0.0000,0.0000,
494,608.69,16428.82,-16428.82,1390.6000,65535.0000,43320.0000,41929.4000,0.0000,0.0000,0.0000,
495,609.16,16416.01,-16416.01,1420.0000,65535.0000,43610.4000,42190.4000,0.0000,0.0000,0.0000,
496,609.64,16403.22,-16403.22,1429.4000,65535.0000,43734.0000,42304.6000,0.0000,0.0000,0.0000,
497,610.11,16390.47,-16390.47,1405.8000,65535.0000,43485.4000,42079.6000,0.0000,0.0000,0.0000,
498,610.59,16377.73,-16377.73,1422.2000,65535.0000,43819.4000,42397.2000,0.0000,0.0000,0.0000,
499,611.06,16365.03,-16365.03,1434.6000,65535.0000,44189.2000,42754.6000,0.0000,0.0000,0.0000,
500,611.53,16352.35,-16352.35,1443.8000,65535.0000,44338.6000,42894.8000,0.0000,0.0000,0.0000,
501,612.01,16339.69,-16339.69,1444.6000,65535.0000,44426.8000,42982.2000,0.0000,0.0000,0.0000,
502,612.48,16327.06,-16327.06,1424.8000,65535.0000,44367.4000,42942.6000,0.0000,0.0000,0.0000,
503,612.95,16314.46,-16314.46,1431.2000,65535.0000,44618.6000,43187.4000,0.0000,0.0000,0.0000,
504,613.43,16301.87,-16301.87,1431.8000,65535.0000,44778.0000,43346.2000,0.0000,0.0000,0.0000,
505,613.90,16289.32,-16289.32,1425.4000,65535.0000,44495.8000,43070.4000,0.0000,0.0000,0.0000,
506,614.37,16276.79,-16276.79,1431.8000,65535.0000,44797.4000,43365.6000,0.0000,0.0000,0.0000,
507,614.84,16264.28,-16264.28,1426.2000,65535.0000,44783.6000,43357.4000,0.0000,0.0000,0.0000,
508,615.32,16251.80,-16251.80,1426.2000,65535.0000,44964.0000,43537.8000,0.0000,0.0000,0.0000,
509,615.79,16239.34,-16239.34,1440.6000,65535.0000,45054.6000,43614.0000,0.0000,0.0000,0.0000,
510,616.26,16226.91,-16226.91,1417.0000,65535.0000,45468.8000,44051.8000,0.0000,0.0000,0.0000,
511,616.73,16214.50,-16214.50,1434.8000,65535.0000,45364.2000,43929.4000,0.0000,0.0000,0.0000,
512,617.20,16202.12,-16202.12,1441.4000,65535.0000,44932.0000,43490.6000,0.0000,0.0000,0.0000,
513,617.67,16189.76,-16189.76,1453.0000,65535.0000,45089.0000,43636.0000,0.0000,0.0000,0.0000,
514,618.15,16177.43,-16177.43,1448.2000,65535.0000,45322.6000,43874.4000,0.0000,0.0000,0.0000,
515,618.62,16165.12,-16165.12,1414.8000,65535.0000,45258.8000,43844.0000,0.0000,0.0000,0.0000,
516,619.09,16152.83,-16152.83,1438.4000,65535.0000,45308.6000,43870.2000,0.0000,0.0000,0.0000,
517,619.56,16140.57,-16140.57,1404.4000,65535.0000,45357.8000,43953.4000,0.0000,0.0000,0.0000,
518,620.03,16128.33,-16128.33,1421.0000,65535.0000,45067.2000,43646.2000,0.0000,0.0000,0.0000,
519,620.50,16116.12,-16116.12,1417.8000,65535.0000,45162.0000,43744.2000,0.0000,0.0000,0.0000,
520,620.97,16103.93,-16103.93,1425.2000,65535.0000,45023.8000,43598.6000,0.0000,0.0000,0.0000,
521,621.44,16091.76,-16091.76,1413.8000,65535.0000,44880.4000,43466.6000,0.0000,0.0000,0.0000,
522,621.91,16079.62,-16079.62,1453.4000,65535.0000,44887.4000,43434.0000,0.0000,0.0000,0.0000,
523,622.37,16067.50,-16067.50,1437.0000,65535.0000,44705.8000,43268.8000,0.0000,0.0000,0.0000,
524,622.84,16055.41,-16055.41,1415.2000,65535.0000,45255.8000,43840.6000,0.0000,0.0000,0.0000,
525,623.31,16043.33,-16043.33,1431.2000,65535.0000,45075.6000,43644.4000,0.0000,0.0000,0.0000,
526,623.78,16031.29,-16031.29,1421.8000,65535.0000,45033.8000,43612.0000,0.0000,0.0000,0.0000,
527,624.25,16019.26,-16019.26,1389.6000,65535.0000,44999.0000,43609.4000,0.0000,0.0000,0.0000,
528,624.72,16007.26,-16007.26,1432.6000,65535.0000,45091.4000,43658.8000,0.0000,0.0000,0.0000,
529,625.18,15995.28,-15995.28,1401.6000,65535.0000,45257.8000,43856.2000,0.0000,0.0000,0.0000,
530,625.65,15983.33,-15983.33,1412.2000,65535.0000,45028.0000,43615.8000,0.0000,0.0000,0.0000,
531,626.12,15971.40,-15971.40,1415.2000,65535.0000,44963.2000,43548.0000,0.0000,0.0000,0.0000,
532,626.59,15959.49,-15959.49,1437.2000,65535.0000,44706.0000,43268.8000,0.0000,0.0000,0.0000,
533,627.05,15947.60,-15947.60,1452.6000,65535.0000,45185.8000,43733.2000,0.0000,0.0000,0.0000,
534,627.52,15935.74,-15935.74,1429.6000,65535.0000,45037.4000,43607.8000,0.0000,0.0000,0.0000,
535,627.99,15923.90,-15923.90,1426.2000,65535.0000,45035.8000,43609.6000,0.0000,0.0000,0.0000,
536,628.45,15912.09,-15912.09,1452.0000,65535.0000,44930.2000,43478.2000,0.0000,0.0000,0.0000,
537,628.92,15900.29,-15900.29,1434.8000,65535.0000,44769.6000,43334.8000,0.0000,0.0000,0.0000,
538,629.39,15888.52,-15888.52,1415.6000,65535.0000,44623.8000,43208.2000,0.0000,0.0000,0.0000,
539,629.85,15876.78,-15876.78,1414.4000,65535.0000,44415.4000,43001.0000,0.0000,0.0000,0.0000,
540,630.32,15865.05,-15865.05,1427.6000,65535.0000,44591.6000,43164.0000,0.0000,0.0000,0.0000,
541,630.78,15853.35,-15853.35,1421.6000,65535.0000,44694.8000,43273.2000,0.0000,0.0000,0.0000,
542,631.25,15841.67,-15841.67,1436.2000,65535.0000,44406.0000,42969.8000,0.0000,0.0000,0.0000,
543,631.71,15830.01,-15830.01,1441.8000,65535.0000,44608.0000,43166.2000,0.0000,0.0000,0.0000,
544,632.18,15818.37,-15818.37,1422.0000,65535.0000,44509.2000,43087.2000,0.0000,0.0000,0.0000,
545,632.64,15806.76,-15806.76,1426.0000,65535.0000,44512.2000,43086.2000,0.0000,0.0000,0.0000,
546,633.10,15795.17,-15795.17,1438.2000,65535.0000,44053.6000,42615.4000,0.0000,0.0000,0.0000,
547,633.57,15783.60,-15783.60,1427.2000,65535.0000,44056.2000,42629.0000,0.0000,0.0000,0.0000,
548,634.03,15772.06,-15772.06,1402.6000,65535.0000,44143.2000,42740.6000,0.0000,0.0000,0.0000,
549,634.50,15760.53,-15760.53,1405.2000,65535.0000,44301.6000,42896.4000,0.0000,0.0000,0.0000,
550,634.96,15749.03,-15749.03,1426.2000,65535.0000,44285.6000,42859.4000,0.0000,0.0000,0.0000,
551,635.42,15737.55,-15737.55,1399.4000,65535.0000,44274.4000,42875.0000,0.0000,0.0000,0.0000,
552,635.89,15726.09,-15726.09,1435.0000,65535.0000,44260.6000,42825.6000,0.0000,0.0000,0.0000,
553,636.35,15714.65,-15714.65,1413.2000,65535.0000,43971.0000,42557.8000,0.0000,0.0000,0.0000,
554,636.81,15703.24,-15703.24,1416.2000,65535.0000,44094.6000,42678.4000,0.0000,0.0000,0.0000,
555,637.27,15691.85,-15691.85,1413.4000,65535.0000,44366.4000,42953.0000,0.0000,0.0000,0.0000,
556,637.74,15680.47,-15680.47,1418.2000,65535.0000,44055.4000,42637.2000,0.0000,0.0000,0.0000,
557,638.20,15669.12,-15669.12,1406.4000,65535.0000,44205.6000,42799.2000,0.0000,0.0000,0.0000,
558,638.66,15657.80,-15657.80,1420.6000,65535.0000,44050.0000,42629.4000,0.0000,0.0000,0.0000,
559,639.12,15646.49,-15646.49,1439.6000,65535.0000,43993.0000,42553.4000,0.0000,0.0000,0.0000,
560,639.58,15635.20,-15635.20,1424.2000,65535.0000,43788.6000,42364.4000,0.0000,0.0000,0.0000,
561,640.04,15623.94,-15623.94,1413.6000,65535.0000,43760.8000,42347.2000,0.0000,0.0000,0.0000,
562,640.50,15612.70,-15612.70,1432.4000,65535.0000,43779.0000,42346.6000,0.0000,0.0000,0.0000,
563,640.97,15601.48,-15601.48,1403.2000,65535.0000,43622.8000,42219.6000,0.0000,0.0000,0.0000,
564,641.43,15590.28,-15590.28,1423.8000,65535.0000,43483.6000,42059.8000,0.0000,0.0000,0.0000,
565,641.89,15579.10,-15579.10,1408.0000,65535.0000,43620.6000,42212.6000,0.0000,0.0000,0.0000,
566,642.35,15567.94,-15567.94,1411.0000,65535.0000,43500.8000,42089.8000,0.0000,0.0000,0.0000,
567,642.81,15556.80,-15556.80,1404.4000,65535.0000,43554.2000,42149.8000,0.0000,0.0000,0.0000,
568,643.27,15545.69,-15545.69,1410.2000,65535.0000,43995.2000,42585.0000,0.0000,0.0000,0.0000,
569,643.72,15534.59,-15534.59,1411.0000,65535.0000,43805.0000,42394.0000,0.0000,0.0000,0.0000,
570,644.18,15523.52,-15523.52,1416.6000,65535.0000,43749.6000,42333.0000,0.0000,0.0000,0.0000,
571,644.64,15512.46,-15512.46,1430.8000,65535.0000,43719.4000,42288.6000,0.0000,0.0000,0.0000,
572,645.10,15501.43,-15501.43,1420.2000,65535.0000,43666.0000,42245.8000,0.0000,0.0000,0.0000,
573,645.56,15490.42,-15490.42,1412.0000,65535.0000,43477.6000,42065.6000,0.0000,0.0000,0.0000,
574,646.02,15479.43,-15479.43,1419.2000,65535.0000,43398.2000,41979.0000,0.0000,0.0000,0.0000,
575,646.48,15468.46,-15468.46,1405.2000,65535.0000,43601.8000,42196.6000,0.0000,0.0000,0.0000,
576,646.93,15457.51,-15457.51,1403.4000,65535.0000,43786.8000,42383.4000,0.0000,0.0000,0.0000,
577,647.39,15446.58,-15446.58,1406.2000,65535.0000,43671.2000,42265.0000,0.0000,0.0000,0.0000,
578,647.85,15435.67,-15435.67,1395.6000,65535.0000,43654.4000,42258.8000,0.0000,0.0000,0.0000,
579,648.31,15424.78,-15424.78,1411.4000,65535.0000,43509.0000,42097.6000,0.0000,0.0000,0.0000,
580,648.76,15413.91,-15413.91,1416.0000,65535.0000,43608.4000,42192.4000,0.0000,0.0000,0.0000,
581,649.22,15403.07,-15403.07,1406.0000,65535.0000,43756.2000,42350.2000,0.0000,0.0000,0.0000,
582,649.68,15392.24,-15392.24,1410.4000,65535.0000,43625.0000,42214.6000,0.0000,0.0000,0.0000,
583,650.13,15381.43,-15381.43,1405.8000,65535.0000,44173.0000,42767.2000,0.0000,0.0000,0.0000,
584,650.59,15370.64,-15370.64,1418.8000,65535.0000,44146.8000,42728.0000,0.0000,0.0000,0.0000,
585,651.05,15359.88,-15359.88,1435.0000,65535.0000,43847.2000,42412.2000,0.0000,0.0000,0.0000,
586,651.50,15349.13,-15349.13,1410.8000,65535.0000,44043.0000,42632.2000,0.0000,0.0000,0.0000,
587,651.96,15338.40,-15338.40,1403.4000,65535.0000,44154.6000,42751.2000,0.0000,0.0000,0.0000,
588,652.41,15327.69,-15327.69,1426.6000,65535.0000,44351.4000,42924.8000,0.0000,0.0000,0.0000,
589,652.87,15317.01,-15317.01,1413.2000,65535.0000,44001.4000,42588.2000,0.0000,0.0000,0.0000,
590,653.32,15306.34,-15306.34,1431.4000,65535.0000,43934.8000,42503.4000,0.0000,0.0000,0.0000,
591,653.78,15295.69,-15295.69,1428.0000,65535.0000,43839.8000,42411.8000,0.0000,0.0000,0.0000,
592,654.23,15285.06,-15285.06,1432.4000,65535.0000,44320.4000,42888.0000,0.0000,0.0000,0.0000,
593,654.69,15274.45,-15274.45,1421.2000,65535.0000,44292.4000,42871.2000,0.0000,0.0000,0.0000,
594,655.14,15263.86,-15263.86,1412.6000,65535.0000,44359.8000,42947.2000,0.0000,0.0000,0.0000,
595,655.60,15253.29,-15253.29,1411.8000,65535.0000,44565.0000,43153.2000,0.0000,0.0000,0.0000,
596,656.05,15242.74,-15242.74,1392.6000,65535.0000,44268.8000,42876.2000,0.0000,0.0000,0.0000,
597,656.50,15232.21,-15232.21,1420.8000,65535.0000,43989.2000,42568.4000,0.0000,0.0000,0.0000,
598,656.96,15221.70,-15221.70,1411.4000,65535.0000,44036.4000,42625.0000,0.0000,0.0000,0.0000,
599,657.41,15211.21,-15211.21,1434.2000,65535.0000,44295.4000,42861.2000,0.0000,0.0000,0.0000,
600,657.86,15200.74,-15200.74,1424.4000,65535.0000,44326.6000,42902.2000,0.0000,0.0000,0.0000,
601,658.32,15190.29,-15190.29,1400.6000,65535.0000,44476.0000,43075.4000,0.0000,0.0000,0.0000,
602,658.77,15179.85,-15179.85,1417.0000,65535.0000,44608.2000,43191.2000,0.0000,0.0000,0.0000,
603,659.22,15169.44,-15169.44,1434.8000,65535.0000,44438.4000,43003.6000,0.0000,0.0000,0.0000,
604,659.67,15159.04,-15159.04,1412.0000,65535.0000,44755.8000,43343.8000,0.0000,0.0000,0.0000,
605,660.12,15148.66,-15148.66,1419.8000,65535.0000,44550.4000,43130.6000,0.0000,0.0000,0.0000,
606,660.58,15138.31,-15138.31,1411.4000,65535.0000,44655.8000,43244.4000,0.0000,0.0000,0.0000,
607,661.03,15127.97,-15127.97,1419.8000,65535.0000,44800.4000,43380.6000,0.0000,0.0000,0.0000,
608,661.48,15117.65,-15117.65,1422.2000,65535.0000,44547.2000,43125.0000,0.0000,0.0000,0.0000,
609,661.93,15107.35,-15107.35,1434.0000,65535.0000,44521.0000,43087.0000,0.0000,0.0000,0.0000,
610,662.38,15097.07,-15097.07,1412.4000,65535.0000,44567.6000,43155.2000,0.0000,0.0000,0.0000,
611,662.83,15086.80,-15086.80,1424.0000,65535.0000,44508.4000,43084.4000,0.0000,0.0000,0.0000,
612,663.28,15076.56,-15076.56,1441.2000,65535.0000,44522.0000,43080.8000,0.0000,0.0000,0.0000,
613,663.73,15066.33,-15066.33,1418.8000,65535.0000,44605.4000,43186.6000,0.0000,0.0000,0.0000,
614,664.18,15056.12,-15056.12,1430.8000,65535.0000,44577.2000,43146.4000,0.0000,0.0000,0.0000,
615,664.63,15045.93,-15045.93,1424.6000,65535.0000,44872.6000,43448.0000,0.0000,0.0000,0.0000,
616,665.08,15035.76,-15035.76,1418.8000,65535.0000,44736.8000,43318.0000,0.0000,0.0000,0.0000,
617,665.53,15025.61,-15025.61,1437.8000,65535.0000,44968.6000,43530.8000,0.0000,0.0000,0.0000,
618,665.98,15015.48,-15015.48,1393.0000,65535.0000,44738.0000,43345.0000,0.0000,0.0000,0.0000,
619,666.43,15005.36,-15005.36,1397.6000,65535.0000,44882.6000,43485.0000,0.0000,0.0000,0.0000,
620,666.88,14995.27,-14995.27,1406.2000,65535.0000,44966.4000,43560.2000,0.0000,0.0000,0.0000,
621,667.33,14985.19,-14985.19,1413.2000,65535.0000,44871.8000,43458.6000,0.0000,0.0000,0.0000,
622,667.77,14975.13,-14975.13,1392.4000,65535.0000,44788.0000,43395.6000,0.0000,0.0000,0.0000,
623,668.22,14965.09,-14965.09,1406.8000,65535.0000,44967.2000,43560.4000,0.0000,0.0000,0.0000,
624,668.67,14955.06,-14955.06,1424.6000,65535.0000,44944.0000,43519.4000,0.0000,0.0000,0.0000,
625,669.12,14945.06,-14945.06,1410.0000,65535.0000,44802.2000,43392.2000,0.0000,0.0000,0.0000,
626,669.56,14935.07,-14935.07,1433.2000,65535.0000,44694.8000,43261.6000,0.0000,0.0000,0.0000,
627,670.01,14925.10,-14925.10,1418.4000,65535.0000,44783.6000,43365.2000,0.0000,0.0000,0.0000,
628,670.46,14915.15,-14915.15,1419.8000,65535.0000,44592.6000,43172.8000,0.0000,0.0000,0.0000,
629,670.91,14905.22,-14905.22,1429.6000,65535.0000,44581.0000,43151.4000,0.0000,0.0000,0.0000,
630,671.35,14895.30,-14895.30,1426.8000,65535.0000,44461.8000,43035.0000,0.0000,0.0000,0.0000,
631,671.80,14885.40,-14885.40,1427.6000,65535.0000,44554.2000,43126.6000,0.0000,0.0000,0.0000,
632,672.25,14875.52,-14875.52,1414.6000,65535.0000,44759.8000,43345.2000,0.0000,0.0000,0.0000,
633,672.69,14865.66,-14865.66,1425.0000,65535.0000,44716.0000,43291.0000,0.0000,0.0000,0.0000,
634,673.14,14855.82,-14855.82,1395.8000,65535.0000,44805.4000,43409.6000,0.0000,0.0000,0.0000,
635,673.58,14845.99,-14845.99,1412.8000,65535.0000,45013.8000,43601.0000,0.0000,0.0000,0.0000,
636,674.03,14836.18,-14836.18,1446.2000,65535.0000,44464.2000,43018.0000,0.0000,0.0000,0.0000,
637,674.47,14826.39,-14826.39,1424.2000,65535.0000,44306.0000,42881.8000,0.0000,0.0000,0.0000,
638,674.92,14816.61,-14816.61,1408.2000,65535.0000,44537.2000,43129.0000,0.0000,0.0000,0.0000,
639,675.36,14806.86,-14806.86,1437.0000,65535.0000,44830.4000,43393.4000,0.0000,0.0000,0.0000,
640,675.81,14797.12,-14797.12,1425.6000,65535.0000,44918.6000,43493.0000,0.0000,0.0000,0.0000,
641,676.25,14787.40,-14787.40,1408.8000,65535.0000,44956.6000,43547.8000,0.0000,0.0000,0.0000,
642,676.70,14777.69,-14777.69,1432.2000,65535.0000,45193.6000,43761.4000,0.0000,0.0000,0.0000,
643,677.14,14768.01,-14768.01,1404.2000,65535.0000,44585.2000,43181.0000,0.0000,0.0000,0.0000,
644,677.58,14758.34,-14758.34,1429.8000,65535.0000,44283.6000,42853.8000,0.0000,0.0000,0.0000,
645,678.03,14748.68,-14748.68,1438.4000,65535.0000,44362.0000,42923.6000,0.0000,0.0000,0.0000,
646,678.47,14739.05,-14739.05,1433.6000,65535.0000,44262.0000,42828.4000,0.0000,0.0000,0.0000,
647,678.91,14729.43,-14729.43,1426.0000,65535.0000,43705.8000,42279.8000,0.0000,0.0000,0.0000,
648,679.36,14719.83,-14719.83,1427.2000,65535.0000,44166.6000,42739.4000,0.0000,0.0000,0.0000,
649,679.80,14710.24,-14710.24,1403.6000,65535.0000,44247.0000,42843.4000,0.0000,0.0000,0.0000,
650,680.24,14700.68,-14700.68,1423.6000,65535.0000,43771.8000,42348.2000,0.0000,0.0000,0.0000,
651,680.68,14691.13,-14691.13,1411.8000,65535.0000,43927.6000,42515.8000,0.0000,0.0000,0.0000,
652,681.12,14681.59,-14681.59,1424.4000,65535.0000,43952.6000,42528.2000,0.0000,0.0000,0.0000,
653,681.57,14672.08,-14672.08,1445.8000,65535.0000,43385.8000,41940.0000,0.0000,0.0000,0.0000,
654,682.01,14662.58,-14662.58,1415.0000,65535.0000,43336.2000,41921.2000,0.0000,0.0000,0.0000,
655,682.45,14653.09,-14653.09,1411.8000,65535.0000,43310.0000,41898.2000,0.0000,0.0000,0.0000,
656,682.89,14643.63,-14643.63,1432.6000,65535.0000,43461.2000,42028.6000,0.0000,0.0000,0.0000,
657,683.33,14634.18,-14634.18,1400.8000,65535.0000,43560.8000,42160.0000,0.0000,0.0000,0.0000,
658,683.77,14624.75,-14624.75,1447.6000,65535.0000,43296.8000,41849.2000,0.0000,0.0000,0.0000,
659,684.21,14615.33,-14615.33,1426.4000,65535.0000,43339.8000,41913.4000,0.0000,0.0000,0.0000,
660,684.65,14605.93,-14605.93,1427.0000,65535.0000,43183.6000,41756.6000,0.0000,0.0000,0.0000,
661,685.09,14596.55,-14596.55,1437.8000,65535.0000,43228.4000,41790.6000,0.0000,0.0000,0.0000,
662,685.53,14587.18,-14587.18,1418.0000,65535.0000,43061.6000,41643.6000,0.0000,0.0000,0.0000,
663,685.97,14577.83,-14577.83,1408.0000,65535.0000,42847.8000,41439.8000,0.0000,0.0000,0.0000,
664,686.41,14568.50,-14568.50,1427.0000,65535.0000,42857.2000,41430.2000,0.0000,0.0000,0.0000,
665,686.85,14559.18,-14559.18,1410.2000,65535.0000,42487.4000,41077.2000,0.0000,0.0000,0.0000,
666,687.29,14549.88,-14549.88,1408.2000,65535.0000,42484.0000,41075.8000,0.0000,0.0000,0.0000,
667,687.73,14540.60,-14540.60,1418.4000,65535.0000,42155.4000,40737.0000,0.0000,0.0000,0.0000,
668,688.17,14531.33,-14531.33,1417.2000,65535.0000,42534.6000,41117.4000,0.0000,0.0000,0.0000,
669,688.61,14522.08,-14522.08,1416.6000,65535.0000,42391.8000,40975.2000,0.0000,0.0000,0.0000,
670,689.04,14512.84,-14512.84,1418.4000,65535.0000,42138.2000,40719.8000,0.0000,0.0000,0.0000,
671,689.48,14503.63,-14503.63,1417.8000,65535.0000,41943.4000,40525.6000,0.0000,0.0000,0.0000,
672,689.92,14494.42,-14494.42,1420.4000,65535.0000,41892.0000,40471.6000,0.0000,0.0000,0.0000,
673,690.36,14485.24,-14485.24,1411.4000,65535.0000,42026.6000,40615.2000,0.0000,0.0000,0.0000,
674,690.80,14476.06,-14476.06,1411.8000,65535.0000,42019.0000,40607.2000,0.0000,0.0000,0.0000,
675,691.23,14466.91,-14466.91,1445.8000,65535.0000,42352.6000,40906.8000,0.0000,0.0000,0.0000,
676,691.67,14457.77,-14457.77,1433.0000,65535.0000,41809.8000,40376.8000,0.0000,0.0000,0.0000,
677,692.11,14448.65,-14448.65,1422.4000,65535.0000,41562.8000,40140.4000,0.0000,0.0000,0.0000,
678,692.54,14439.54,-14439.54,1405.6000,65535.0000,41618.8000,40213.2000,0.0000,0.0000,0.0000,
679,692.98,14430.45,-14430.45,1415.2000,65535.0000,41408.4000,39993.2000,0.0000,0.0000,0.0000,
680,693.42,14421.37,-14421.37,1424.0000,65535.0000,41359.0000,39935.0000,0.0000,0.0000,0.0000,
681,693.85,14412.31,-14412.31,1407.8000,65535.0000,41231.0000,39823.2000,0.0000,0.0000,0.0000,
682,694.29,14403.27,-14403.27,1435.8000,65535.0000,41035.2000,39599.4000,0.0000,0.0000,0.0000,
683,694.72,14394.24,-14394.24,1432.6000,65535.0000,40863.6000,39431.0000,0.0000,0.0000,0.0000,
684,695.16,14385.23,-14385.23,1417.8000,65535.0000,40460.4000,39042.6000,0.0000,0.0000,0.0000,
685,695.59,14376.23,-14376.23,1407.6000,65535.0000,40458.6000,39051.0000,0.0000,0.0000,0.0000,
686,696.03,14367.25,-14367.25,1432.2000,65535.0000,40273.2000,38841.0000,0.0000,0.0000,0.0000,
687,696.46,14358.29,-14358.29,1410.8000,65535.0000,40316.0000,38905.2000,0.0000,0.0000,0.0000,
688,696.90,14349.34,-14349.34,1429.8000,65535.0000,40076.0000,38646.2000,0.0000,0.0000,0.0000,
689,697.33,14340.40,-14340.40,1423.4000,65535.0000,40198.6000,38775.2000,0.0000,0.0000,0.0000,
690,697.76,14331.48,-14331.48,1423.8000,65535.0000,40186.2000,38762.4000,0.0000,0.0000,0.0000,
691,698.20,14322.58,-14322.58,1407.2000,65535.0000,40156.6000,38749.4000,0.0000,0.0000,0.0000,
692,698.63,14313.69,-14313.69,1424.8000,65535.0000,40083.6000,38658.8000,0.0000,0.0000,0.0000,
693,699.07,14304.82,-14304.82,1414.0000,65535.0000,39864.0000,38450.0000,0.0000,0.0000,0.0000,
694,699.50,14295.96,-14295.96,1437.0000,65535.0000,39953.2000,38516.2000,0.0000,0.0000,0.0000,
695,699.93,14287.12,-14287.12,1399.4000,65535.0000,40247.6000,38848.2000,0.0000,0.0000,0.0000,
696,700.36,14278.29,-14278.29,1419.0000,65535.0000,39919.2000,38500.2000,0.0000,0.0000,0.0000,
697,700.80,14269.48,-14269.48,1403.2000,65535.0000,39513.0000,38109.8000,0.0000,0.0000,0.0000,
698,701.23,14260.68,-14260.68,1417.0000,65535.0000,39313.8000,37896.8000,0.0000,0.0000,0.0000,
699,701.66,14251.90,-14251.90,1419.6000,65535.0000,39377.4000,37957.8000,0.0000,0.0000,0.0000,
700,702.09,14243.13,-14243.13,1409.2000,65535.0000,39042.4000,37633.2000,0.0000,0.0000,0.0000,
701,702.52,14234.38,-14234.38,1429.8000,65535.0000,39275.6000,37845.8000,0.0000,0.0000,0.0000,
702,702.96,14225.64,-14225.64,1405.8000,65535.0000,39223.2000,37817.4000,0.0000,0.0000,0.0000,
703,703.39,14216.92,-14216.92,1420.2000,65535.0000,39486.0000,38065.8000,0.0000,0.0000,0.0000,
704,703.82,14208.21,-14208.21,1401.6000,65535.0000,39367.0000,37965.4000,0.0000,0.0000,0.0000,
705,704.25,14199.52,-14199.52,1409.4000,65535.0000,38989.4000,37580.0000,0.0000,0.0000,0.0000,
706,704.68,14190.84,-14190.84,1405.2000,65535.0000,38830.2000,37425.0000,0.0000,0.0000,0.0000,
707,705.11,14182.18,-14182.18,1402.2000,65535.0000,38487.2000,37085.0000,0.0000,0.0000,0.0000,
708,705.54,14173.53,-14173.53,1403.4000,65535.0000,38727.8000,37324.4000,0.0000,0.0000,0.0000,
709,705.97,14164.90,-14164.90,1431.4000,65535.0000,38646.0000,37214.6000,0.0000,0.0000,0.0000,
710,706.40,14156.28,-14156.28,1409.6000,65535.0000,38742.0000,37332.4000,0.0000,0.0000,0.0000,
711,706.83,14147.68,-14147.68,1446.2000,65535.0000,38766.2000,37320.0000,0.0000,0.0000,0.0000,
712,707.26,14139.09,-14139.09,1432.4000,65535.0000,38953.2000,37520.8000,0.0000,0.0000,0.0000,
713,707.69,14130.52,-14130.52,1400.4000,65535.0000,38849.2000,37448.8000,0.0000,0.0000,0.0000,
714,708.12,14121.96,-14121.96,1417.0000,65535.0000,38697.4000,37280.4000,0.0000,0.0000,0.0000,
715,708.55,14113.42,-14113.42,1420.4000,65535.0000,38869.2000,37448.8000,0.0000,0.0000,0.0000,
716,708.97,14104.88,-14104.88,1433.4000,65535.0000,38439.4000,37006.0000,0.0000,0.0000,0.0000,
717,709.40,14096.37,-14096.37,1415.2000,65535.0000,38146.8000,36731.6000,0.0000,0.0000,0.0000,
718,709.83,14087.87,-14087.87,1425.0000,65535.0000,38008.2000,36583.2000,0.0000,0.0000,0.0000,
719,710.26,14079.38,-14079.38,1428.2000,65535.0000,38024.4000,36596.2000,0.0000,0.0000,0.0000,
720,710.69,14070.91,-14070.91,1432.0000,65535.0000,38109.4000,36677.4000,0.0000,0.0000,0.0000,
721,711.11,14062.45,-14062.45,1421.4000,65535.0000,37663.2000,36241.8000,0.0000,0.0000,0.0000,
722,711.54,14054.01,-14054.01,1438.2000,65535.0000,37551.4000,36113.2000,0.0000,0.0000,0.0000,
723,711.97,14045.58,-14045.58,1431.2000,65535.0000,37563.2000,36132.0000,0.0000,0.0000,0.0000,
724,712.39,14037.16,-14037.16,1412.0000,65535.0000,37806.8000,36394.8000,0.0000,0.0000,0.0000,
725,712.82,14028.76,-14028.76,1425.8000,65535.0000,37532.6000,36106.8000,0.0000,0.0000,0.0000,
726,713.25,14020.38,-14020.38,1413.8000,65535.0000,37441.0000,36027.2000,0.0000,0.0000,0.0000,
727,713.67,14012.00,-14012.00,1433.6000,65535.0000,37560.8000,36127.2000,0.0000,0.0000,0.0000,
728,714.10,14003.64,-14003.64,1397.8000,65535.0000,37774.8000,36377.0000,0.0000,0.0000,0.0000,
729,714.53,13995.30,-13995.30,1450.6000,65535.0000,37279.0000,35828.4000,0.0000,0.0000,0.0000,
730,714.95,13986.97,-13986.97,1406.4000,65535.0000,37225.4000,35819.0000,0.0000,0.0000,0.0000,
731,715.38,13978.65,-13978.65,1402.2000,65535.0000,37289.0000,35886.8000,0.0000,0.0000,0.0000,
732,715.80,13970.35,-13970.35,1407.4000,65535.0000,37088.6000,35681.2000,0.0000,0.0000,0.0000,
733,716.23,13962.06,-13962.06,1422.0000,65535.0000,37426.2000,36004.2000,0.0000,0.0000,0.0000,
734,716.65,13953.79,-13953.79,1420.4000,65535.0000,37317.2000,35896.8000,0.0000,0.0000,0.0000,
735,717.08,13945.53,-13945.53,1410.6000,65535.0000,37586.6000,36176.0000,0.0000,0.0000,0.0000,
736,717.50,13937.28,-13937.28,1411.4000,65535.0000,37743.6000,36332.2000,0.0000,0.0000,0.0000,
737,717.92,13929.05,-13929.05,1430.4000,65535.0000,37578.4000,36148.0000,0.0000,0.0000,0.0000,
738,718.35,13920.83,-13920.83,1414.2000,65535.0000,37066.2000,35652.0000,0.0000,0.0000,0.0000,
739,718.77,13912.63,-13912.63,1423.0000,65535.0000,37353.6000,35930.6000,0.0000,0.0000,0.0000,
740,719.20,13904.43,-13904.43,1428.2000,65535.0000,37437.4000,36009.2000,0.0000,0.0000,0.0000,
741,719.62,13896.26,-13896.26,1417.0000,65535.0000,37456.2000,36039.2000,0.0000,0.0000,0.0000,
742,720.04,13888.09,-13888.09,1408.2000,65535.0000,37207.2000,35799.0000,0.0000,0.0000,0.0000,
743,720.46,13879.94,-13879.94,1459.8000,65535.0000,37180.4000,35720.6000,0.0000,0.0000,0.0000,
744,720.89,13871.81,-13871.81,1408.8000,65535.0000,36802.0000,35393.2000,0.0000,0.0000,0.0000,
745,721.31,13863.68,-13863.68,1409.2000,65535.0000,36891.4000,35482.2000,0.0000,0.0000,0.0000,
746,721.73,13855.57,-13855.57,1395.8000,65535.0000,36768.8000,35373.0000,0.0000,0.0000,0.0000,
747,722.15,13847.48,-13847.48,1415.8000,65535.0000,36808.6000,35392.8000,0.0000,0.0000,0.0000,
748,722.57,13839.39,-13839.39,1420.8000,65535.0000,37121.4000,35700.6000,0.0000,0.0000,0.0000,
749,723.00,13831.33,-13831.33,1433.6000,65535.0000,37156.0000,35722.4000,0.0000,0.0000,0.0000,
750,723.42,13823.27,-13823.27,1411.6000,65535.0000,36900.2000,35488.6000,0.0000,0.0000,0.0000,
751,723.84,13815.23,-13815.23,1434.8000,65535.0000,36810.4000,35375.6000,0.0000,0.0000,0.0000,
752,724.26,13807.20,-13807.20,1416.4000,65535.0000,36905.8000,35489.4000,0.0000,0.0000,0.0000,
753,724.68,13799.18,-13799.18,1413.4000,65535.0000,36679.2000,35265.8000,0.0000,0.0000,0.0000,
754,725.10,13791.18,-13791.18,1428.4000,65535.0000,36678.2000,35249.8000,0.0000,0.0000,0.0000,
755,725.52,13783.19,-13783.19,1400.2000,65535.0000,36983.0000,35582.8000,0.0000,0.0000,0.0000,
756,725.94,13775.22,-13775.22,1418.0000,65535.0000,36671.6000,35253.6000,0.0000,0.0000,0.0000,
757,726.36,13767.26,-13767.26,1423.6000,65535.0000,36520.6000,35097.0000,0.0000,0.0000,0.0000,
758,726.78,13759.31,-13759.31,1438.6000,65535.0000,36650.6000,35212.0000,0.0000,0.0000,0.0000,
759,727.20,13751.37,-13751.37,1427.8000,65535.0000,36536.4000,35108.6000,0.0000,0.0000,0.0000,
760,727.62,13743.45,-13743.45,1412.4000,65535.0000,36296.8000,34884.4000,0.0000,0.0000,0.0000,
761,728.04,13735.54,-13735.54,1409.8000,65535.0000,36455.4000,35045.6000,0.0000,0.0000,0.0000,
762,728.46,13727.64,-13727.64,1430.6000,65535.0000,36555.0000,35124.4000,0.0000,0.0000,0.0000,
763,728.88,13719.76,-13719.76,1437.2000,65535.0000,36413.8000,34976.6000,0.0000,0.0000,0.0000,
764,729.29,13711.89,-13711.89,1429.0000,65535.0000,36233.6000,34804.6000,0.0000,0.0000,0.0000,
765,729.71,13704.03,-13704.03,1436.0000,65535.0000,36140.0000,34704.0000,0.0000,0.0000,0.0000,
766,730.13,13696.19,-13696.19,1418.8000,65535.0000,36141.2000,34722.4000,0.0000,0.0000,0.0000,
767,730.55,13688.35,-13688.35,1406.4000,65535.0000,36065.4000,34659.0000,0.0000,0.0000,0.0000,
768,730.97,13680.53,-13680.53,1408.6000,65535.0000,35803.0000,34394.4000,0.0000,0.0000,0.0000,
769,731.38,13672.73,-13672.73,1406.4000,65535.0000,36043.6000,34637.2000,0.0000,0.0000,0.0000,
770,731.80,13664.94,-13664.94,1425.2000,65535.0000,35766.4000,34341.2000,0.0000,0.0000,0.0000,
771,732.22,13657.16,-13657.16,1428.4000,65535.0000,35959.4000,34531.0000,0.0000,0.0000,0.0000,
772,732.63,13649.39,-13649.39,1424.8000,65535.0000,35901.8000,34477.0000,0.0000,0.0000,0.0000,
773,733.05,13641.63,-13641.63,1416.2000,65535.0000,35801.8000,34385.6000,0.0000,0.0000,0.0000,
774,733.47,13633.89,-13633.89,1428.4000,65535.0000,35816.6000,34388.2000,0.0000,0.0000,0.0000,
775,733.88,13626.16,-13626.16,1412.0000,65535.0000,35853.2000,34441.2000,0.0000,0.0000,0.0000,
776,734.30,13618.45,-13618.45,1378.0000,65535.0000,36013.0000,34635.0000,0.0000,0.0000,0.0000,
777,734.71,13610.74,-13610.74,1410.4000,65535.0000,35637.2000,34226.8000,0.0000,0.0000,0.0000,
778,735.13,13603.05,-13603.05,1430.0000,65535.0000,35660.6000,34230.6000,0.0000,0.0000,0.0000,
779,735.54,13595.37,-13595.37,1441.6000,65535.0000,35547.8000,34106.2000,0.0000,0.0000,0.0000,
780,735.96,13587.71,-13587.71,1407.0000,65535.0000,35760.0000,34353.0000,0.0000,0.0000,0.0000,
781,736.37,13580.05,-13580.05,1407.2000,65535.0000,35709.0000,34301.8000,0.0000,0.0000,0.0000,
782,736.79,13572.41,-13572.41,1441.6000,65535.0000,35379.4000,33937.8000,0.0000,0.0000,0.0000,
783,737.20,13564.78,-13564.78,1456.2000,65535.0000,35366.8000,33910.6000,0.0000,0.0000,0.0000,
784,737.62,13557.17,-13557.17,1424.0000,65535.0000,35513.6000,34089.6000,0.0000,0.0000,0.0000,
785,738.03,13549.56,-13549.56,1414.8000,65535.0000,35565.2000,34150.4000,0.0000,0.0000,0.0000,
786,738.44,13541.97,-13541.97,1412.2000,65535.0000,35551.4000,34139.2000,0.0000,0.0000,0.0000,
787,738.86,13534.39,-13534.39,1406.0000,65535.0000,35567.2000,34161.2000,0.0000,0.0000,0.0000,
788,739.27,13526.83,-13526.83,1424.8000,65535.0000,35262.4000,33837.6000,0.0000,0.0000,0.0000,
789,739.68,13519.27,-13519.27,1390.4000,65535.0000,35454.0000,34063.6000,0.0000,0.0000,0.0000,
790,740.10,13511.73,-13511.73,1397.0000,65535.0000,35384.0000,33987.0000,0.0000,0.0000,0.0000,
791,740.51,13504.20,-13504.20,1399.2000,65535.0000,35387.2000,33988.0000,0.0000,0.0000,0.0000,
792,740.92,13496.69,-13496.69,1410.8000,65535.0000,35183.2000,33772.4000,0.0000,0.0000,0.0000,
793,741.33,13489.18,-13489.18,1427.2000,65535.0000,35468.6000,34041.4000,0.0000,0.0000,0.0000,
794,741.75,13481.69,-13481.69,1389.6000,65535.0000,35577.4000,34187.8000,0.0000,0.0000,0.0000,
795,742.16,13474.21,-13474.21,1385.2000,65535.0000,35756.4000,34371.2000,0.0000,0.0000,0.0000,
796,742.57,13466.74,-13466.74,1409.4000,65535.0000,35582.2000,34172.8000,0.0000,0.0000,0.0000,
797,742.98,13459.28,-13459.28,1395.4000,65535.0000,35460.4000,34065.0000,0.0000,0.0000,0.0000,
798,743.39,13451.84,-13451.84,1411.2000,65535.0000,35261.4000,33850.2000,0.0000,0.0000,0.0000,
799,743.80,13444.40,-13444.40,1419.2000,65535.0000,34911.8000,33492.6000,0.0000,0.0000,0.0000,
800,744.21,13436.98,-13436.98,1393.8000,65535.0000,35109.2000,33715.4000,0.0000,0.0000,0.0000,
801,744.63,13429.58,-13429.58,1429.8000,65535.0000,35174.8000,33745.0000,0.0000,0.0000,0.0000,
802,745.04,13422.18,-13422.18,1407.2000,65535.0000,35090.2000,33683.0000,0.0000,0.0000,0.0000,
803,745.45,13414.79,-13414.79,1410.8000,65535.0000,34827.4000,33416.6000,0.0000,0.0000,0.0000,
804,745.86,13407.42,-13407.42,1411.8000,65535.0000,34846.2000,33434.4000,0.0000,0.0000,0.0000,
805,746.27,13400.06,-13400.06,1419.8000,65535.0000,34770.8000,33351.0000,0.0000,0.0000,0.0000,
806,746.67,13392.71,-13392.71,1427.0000,65535.0000,34695.8000,33268.8000,0.0000,0.0000,0.0000,
807,747.08,13385.38,-13385.38,1399.0000,65535.0000,34654.6000,33255.6000,0.0000,0.0000,0.0000,
808,747.49,13378.05,-13378.05,1412.8000,65535.0000,34517.0000,33104.2000,0.0000,0.0000,0.0000,
809,747.90,13370.74,-13370.74,1429.6000,65535.0000,34568.6000,33139.0000,0.0000,0.0000,0.0000,
810,748.31,13363.44,-13363.44,1415.0000,65535.0000,34228.6000,32813.6000,0.0000,0.0000,0.0000,
811,748.72,13356.15,-13356.15,1417.4000,65535.0000,34222.8000,32805.4000,0.0000,0.0000,0.0000,
812,749.13,13348.87,-13348.87,1432.6000,65535.0000,34023.2000,32590.6000,0.0000,0.0000,0.0000,
813,749.54,13341.60,-13341.60,1396.6000,65535.0000,34084.2000,32687.6000,0.0000,0.0000,0.0000,
814,749.94,13334.35,-13334.35,1440.6000,65535.0000,34129.8000,32689.2000,0.0000,0.0000,0.0000,
815,750.35,13327.10,-13327.10,1427.0000,65535.0000,34232.8000,32805.8000,0.0000,0.0000,0.0000,
816,750.76,13319.87,-13319.87,1408.8000,65535.0000,33937.4000,32528.6000,0.0000,0.0000,0.0000,
817,751.17,13312.65,-13312.65,1425.0000,65535.0000,34081.4000,32656.4000,0.0000,0.0000,0.0000,
818,751.57,13305.45,-13305.45,1394.4000,65535.0000,34132.8000,32738.4000,0.0000,0.0000,0.0000,
819,751.98,13298.25,-13298.25,1399.0000,65535.0000,33901.4000,32502.4000,0.0000,0.0000,0.0000,
820,752.39,13291.06,-13291.06,1402.0000,65535.0000,33749.2000,32347.2000,0.0000,0.0000,0.0000,
821,752.79,13283.89,-13283.89,1428.2000,65535.0000,33674.2000,32246.0000,0.0000,0.0000,0.0000,
822,753.20,13276.73,-13276.73,1420.0000,65535.0000,33410.6000,31990.6000,0.0000,0.0000,0.0000,
823,753.60,13269.58,-13269.58,1432.6000,65535.0000,33433.8000,32001.2000,0.0000,0.0000,0.0000,
824,754.01,13262.44,-13262.44,1426.4000,65535.0000,33366.2000,31939.8000,0.0000,0.0000,0.0000,
825,754.41,13255.31,-13255.31,1412.6000,65535.0000,33176.6000,31764.0000,0.0000,0.0000,0.0000,
826,754.82,13248.19,-13248.19,1412.6000,65535.0000,33022.2000,31609.6000,0.0000,0.0000,0.0000,
827,755.22,13241.09,-13241.09,1448.0000,65535.0000,33351.4000,31903.4000,0.0000,0.0000,0.0000,
828,755.63,13233.99,-13233.99,1440.4000,65535.0000,33187.8000,31747.4000,0.0000,0.0000,0.0000,
829,756.03,13226.91,-13226.91,1432.4000,65535.0000,32402.4000,30970.0000,0.0000,0.0000,0.0000,
830,756.44,13219.84,-13219.84,1415.4000,65535.0000,32692.2000,31276.8000,0.0000,0.0000,0.0000,
831,756.84,13212.78,-13212.78,1418.8000,65535.0000,32316.2000,30897.4000,0.0000,0.0000,0.0000,
832,757.25,13205.73,-13205.73,1424.4000,65535.0000,32344.8000,30920.4000,0.0000,0.0000,0.0000,
833,757.65,13198.69,-13198.69,1423.6000,65535.0000,32209.0000,30785.4000,0.0000,0.0000,0.0000,
834,758.05,13191.67,-13191.67,1445.4000,65535.0000,32271.4000,30826.0000,0.0000,0.0000,0.0000,
835,758.46,13184.65,-13184.65,1419.6000,65535.0000,32042.0000,30622.4000,0.0000,0.0000,0.0000,
836,758.86,13177.65,-13177.65,1434.8000,65535.0000,32167.6000,30732.8000,0.0000,0.0000,0.0000,
837,759.26,13170.66,-13170.66,1420.6000,65535.0000,31922.2000,30501.6000,0.0000,0.0000,0.0000,
838,759.67,13163.67,-13163.67,1415.4000,65535.0000,31869.4000,30454.0000,0.0000,0.0000,0.0000,
839,760.07,13156.70,-13156.70,1416.2000,65535.0000,31992.8000,30576.6000,0.0000,0.0000,0.0000,
840,760.47,13149.74,-13149.74,1418.0000,65535.0000,31761.6000,30343.6000,0.0000,0.0000,0.0000,
841,760.87,13142.80,-13142.80,1430.8000,65535.0000,31660.2000,30229.4000,0.0000,0.0000,0.0000,
842,761.28,13135.86,-13135.86,1416.6000,65535.0000,31802.2000,30385.6000,0.0000,0.0000,0.0000,
843,761.68,13128.93,-13128.93,1411.6000,65535.0000,31899.6000,30488.0000,0.0000,0.0000,0.0000,
844,762.08,13122.02,-13122.02,1402.4000,65535.0000,31369.4000,29967.0000,0.0000,0.0000,0.0000,
845,762.48,13115.11,-13115.11,1401.0000,65535.0000,31434.6000,30033.6000,0.0000,0.0000,0.0000,
846,762.88,13108.22,-13108.22,1422.0000,65535.0000,31071.0000,29649.0000,0.0000,0.0000,0.0000,
847,763.28,13101.33,-13101.33,1428.4000,65535.0000,31248.2000,29819.8000,0.0000,0.0000,0.0000,
848,763.68,13094.46,-13094.46,1435.6000,65535.0000,30793.4000,29357.8000,0.0000,0.0000,0.0000,
849,764.08,13087.60,-13087.60,1404.4000,65535.0000,30683.0000,29278.6000,0.0000,0.0000,0.0000,
850,764.48,13080.75,-13080.75,1428.6000,65535.0000,30788.6000,29360.0000,0.0000,0.0000,0.0000,
851,764.88,13073.91,-13073.91,1404.0000,65535.0000,30788.4000,29384.4000,0.0000,0.0000,0.0000,
852,765.28,13067.08,-13067.08,1418.0000,65535.0000,30604.0000,29186.0000,0.0000,0.0000,0.0000,
853,765.68,13060.26,-13060.26,1401.4000,65535.0000,30443.2000,29041.8000,0.0000,0.0000,0.0000,
854,766.08,13053.45,-13053.45,1404.6000,65535.0000,30214.2000,28809.6000,0.0000,0.0000,0.0000,
855,766.48,13046.66,-13046.66,1404.6000,65535.0000,29960.0000,28555.4000,0.0000,0.0000,0.0000,
856,766.88,13039.87,-13039.87,1418.8000,65535.0000,29960.0000,28541.2000,0.0000,0.0000,0.0000,
857,767.28,13033.10,-13033.10,1407.4000,65535.0000,29939.4000,28532.0000,0.0000,0.0000,0.0000,
858,767.68,13026.33,-13026.33,1392.2000,65535.0000,29747.4000,28355.2000,0.0000,0.0000,0.0000,
859,768.07,13019.58,-13019.58,1429.6000,65535.0000,29694.0000,28264.4000,0.0000,0.0000,0.0000,
860,768.47,13012.83,-13012.83,1410.6000,65535.0000,29496.2000,28085.6000,0.0000,0.0000,0.0000,
861,768.87,13006.10,-13006.10,1407.4000,65535.0000,29228.8000,27821.4000,0.0000,0.0000,0.0000,
862,769.27,12999.38,-12999.38,1430.6000,65535.0000,29100.6000,27670.0000,0.0000,0.0000,0.0000,
863,769.66,12992.67,-12992.67,1432.8000,65535.0000,29022.8000,27590.0000,0.0000,0.0000,0.0000,
864,770.06,12985.96,-12985.96,1414.6000,65535.0000,29012.8000,27598.2000,0.0000,0.0000,0.0000,
865,770.46,12979.27,-12979.27,1427.2000,65535.0000,29153.4000,27726.2000,0.0000,0.0000,0.0000,
866,770.86,12972.59,-12972.59,1399.8000,65535.0000,28783.0000,27383.2000,0.0000,0.0000,0.0000,
867,771.25,12965.92,-12965.92,1448.2000,65535.0000,28755.2000,27307.0000,0.0000,0.0000,0.0000,
868,771.65,12959.26,-12959.26,1404.2000,65535.0000,28754.4000,27350.2000,0.0000,0.0000,0.0000,
869,772.04,12952.61,-12952.61,1415.6000,65535.0000,28419.0000,27003.4000,0.0000,0.0000,0.0000,
870,772.44,12945.98,-12945.98,1407.0000,65535.0000,28394.8000,26987.8000,0.0000,0.0000,0.0000,
871,772.84,12939.35,-12939.35,1402.0000,65535.0000,28512.4000,27110.4000,0.0000,0.0000,0.0000,
872,773.23,12932.73,-12932.73,1404.4000,65535.0000,28296.4000,26892.0000,0.0000,0.0000,0.0000,
873,773.63,12926.12,-12926.12,1387.4000,65535.0000,28156.4000,26769.0000,0.0000,0.0000,0.0000,
874,774.02,12919.52,-12919.52,1397.0000,65535.0000,28109.2000,26712.2000,0.0000,0.0000,0.0000,
875,774.42,12912.94,-12912.94,1401.4000,65535.0000,27871.2000,26469.8000,0.0000,0.0000,0.0000,
876,774.81,12906.36,-12906.36,1424.6000,65535.0000,27755.2000,26330.6000,0.0000,0.0000,0.0000,
877,775.21,12899.79,-12899.79,1405.6000,65535.0000,27970.4000,26564.8000,0.0000,0.0000,0.0000,
878,775.60,12893.24,-12893.24,1410.2000,65535.0000,28009.0000,26598.8000,0.0000,0.0000,0.0000,
879,775.99,12886.69,-12886.69,1414.8000,65535.0000,27840.8000,26426.0000,0.0000,0.0000,0.0000,
880,776.39,12880.15,-12880.15,1403.0000,65535.0000,27771.2000,26368.2000,0.0000,0.0000,0.0000,
881,776.78,12873.63,-12873.63,1401.0000,65535.0000,27393.0000,25992.0000,0.0000,0.0000,0.0000,
882,777.18,12867.11,-12867.11,1419.2000,65535.0000,27444.2000,26025.0000,0.0000,0.0000,0.0000,
883,777.57,12860.61,-12860.61,1399.0000,65535.0000,27442.4000,26043.4000,0.0000,0.0000,0.0000,
884,777.96,12854.11,-12854.11,1409.6000,65535.0000,27212.0000,25802.4000,0.0000,0.0000,0.0000,
885,778.35,12847.62,-12847.62,1407.8000,65535.0000,27293.4000,25885.6000,0.0000,0.0000,0.0000,
886,778.75,12841.15,-12841.15,1415.0000,65535.0000,27092.6000,25677.6000,0.0000,0.0000,0.0000,
887,779.14,12834.68,-12834.68,1404.6000,65535.0000,27055.6000,25651.0000,0.0000,0.0000,0.0000,
888,779.53,12828.23,-12828.23,1411.2000,65535.0000,27169.6000,25758.4000,0.0000,0.0000,0.0000,
889,779.92,12821.78,-12821.78,1408.4000,65535.0000,26862.4000,25454.0000,0.0000,0.0000,0.0000,
890,780.31,12815.35,-12815.35,1398.6000,65535.0000,26858.8000,25460.2000,0.0000,0.0000,0.0000,
891,780.71,12808.92,-12808.92,1422.2000,65535.0000,26801.0000,25378.8000,0.0000,0.0000,0.0000,
892,781.10,12802.50,-12802.50,1381.0000,65535.0000,26810.2000,25429.2000,0.0000,0.0000,0.0000,
893,781.49,12796.10,-12796.10,1408.0000,65535.0000,26793.2000,25385.2000,0.0000,0.0000,0.0000,
894,781.88,12789.70,-12789.70,1410.4000,65535.0000,26528.8000,25118.4000,0.0000,0.0000,0.0000,
895,782.27,12783.32,-12783.32,1416.0000,65535.0000,26209.0000,24793.0000,0.0000,0.0000,0.0000,
896,782.66,12776.94,-12776.94,1393.2000,65535.0000,26219.2000,24826.0000,0.0000,0.0000,0.0000,
897,783.05,12770.57,-12770.57,1394.0000,65535.0000,26219.0000,24825.0000,0.0000,0.0000,0.0000,
898,783.44,12764.22,-12764.22,1414.0000,65535.0000,26028.2000,24614.2000,0.0000,0.0000,0.0000,
899,783.83,12757.87,-12757.87,1418.4000,65535.0000,25858.8000,24440.4000,0.0000,0.0000,0.0000,
900,784.22,12751.53,-12751.53,1405.4000,65535.0000,25710.6000,24305.2000,0.0000,0.0000,0.0000,
901,784.61,12745.20,-12745.20,1423.4000,65535.0000,25434.8000,24011.4000,0.0000,0.0000,0.0000,
902,785.00,12738.89,-12738.89,1414.8000,65535.0000,25362.2000,23947.4000,0.0000,0.0000,0.0000,
903,785.39,12732.58,-12732.58,1427.2000,65535.0000,25318.2000,23891.0000,0.0000,0.0000,0.0000,
904,785.78,12726.28,-12726.28,1431.0000,65535.0000,25680.2000,24249.2000,0.0000,0.0000,0.0000,
905,786.16,12719.99,-12719.99,1403.2000,65535.0000,25633.6000,24230.4000,0.0000,0.0000,0.0000,
906,786.55,12713.71,-12713.71,1414.0000,65535.0000,25273.0000,23859.0000,0.0000,0.0000,0.0000,
907,786.94,12707.44,-12707.44,1400.2000,65535.0000,25342.4000,23942.2000,0.0000,0.0000,0.0000,
908,787.33,12701.18,-12701.18,1409.8000,65535.0000,25166.6000,23756.8000,0.0000,0.0000,0.0000,
909,787.72,12694.93,-12694.93,1418.0000,65535.0000,25130.6000,23712.6000,0.0000,0.0000,0.0000,
910,788.10,12688.69,-12688.69,1407.0000,65535.0000,25029.2000,23622.2000,0.0000,0.0000,0.0000,
911,788.49,12682.46,-12682.46,1409.6000,65535.0000,24948.6000,23539.0000,0.0000,0.0000,0.0000,
912,788.88,12676.24,-12676.24,1397.8000,65535.0000,24926.2000,23528.4000,0.0000,0.0000,0.0000,
913,789.26,12670.03,-12670.03,1425.4000,65535.0000,24852.2000,23426.8000,0.0000,0.0000,0.0000,
914,789.65,12663.83,-12663.83,1412.8000,65535.0000,24697.6000,23284.8000,0.0000,0.0000,0.0000,
915,790.04,12657.63,-12657.63,1401.6000,65535.0000,24684.6000,23283.0000,0.0000,0.0000,0.0000,
916,790.42,12651.45,-12651.45,1438.0000,65535.0000,24661.8000,23223.8000,0.0000,0.0000,0.0000,
917,790.81,12645.28,-12645.28,1422.4000,65535.0000,24734.2000,23311.8000,0.0000,0.0000,0.0000,
918,791.19,12639.11,-12639.11,1408.6000,65535.0000,24788.4000,23379.8000,0.0000,0.0000,0.0000,
919,791.58,12632.96,-12632.96,1421.4000,65535.0000,24754.4000,23333.0000,0.0000,0.0000,0.0000,
920,791.97,12626.81,-12626.81,1407.4000,65535.0000,24674.6000,23267.2000,0.0000,0.0000,0.0000,
921,792.35,12620.67,-12620.67,1394.6000,65535.0000,24485.0000,23090.4000,0.0000,0.0000,0.0000,
922,792.74,12614.55,-12614.55,1419.6000,65535.0000,24303.0000,22883.4000,0.0000,0.0000,0.0000,
923,793.12,12608.43,-12608.43,1423.8000,65535.0000,24483.0000,23059.2000,0.0000,0.0000,0.0000,
924,793.50,12602.32,-12602.32,1422.0000,65535.0000,24478.2000,23056.2000,0.0000,0.0000,0.0000,
925,793.89,12596.22,-12596.22,1401.8000,65535.0000,24448.2000,23046.4000,0.0000,0.0000,0.0000,
926,794.27,12590.13,-12590.13,1402.0000,65535.0000,24183.2000,22781.2000,0.0000,0.0000,0.0000,
927,794.66,12584.05,-12584.05,1413.8000,65535.0000,24184.6000,22770.8000,0.0000,0.0000,0.0000,
928,795.04,12577.98,-12577.98,1418.2000,65535.0000,24131.6000,22713.4000,0.0000,0.0000,0.0000,
929,795.42,12571.92,-12571.92,1417.8000,65535.0000,23981.2000,22563.4000,0.0000,0.0000,0.0000,
930,795.81,12565.86,-12565.86,1420.6000,65535.0000,24056.0000,22635.4000,0.0000,0.0000,0.0000,
931,796.19,12559.82,-12559.82,1406.2000,65535.0000,23888.2000,22482.0000,0.0000,0.0000,0.0000,
932,796.57,12553.78,-12553.78,1428.8000,65535.0000,23975.2000,22546.4000,0.0000,0.0000,0.0000,
933,796.96,12547.76,-12547.76,1422.6000,65535.0000,23788.4000,22365.8000,0.0000,0.0000,0.0000,
934,797.34,12541.74,-12541.74,1400.0000,65535.0000,23715.8000,22315.8000,0.0000,0.0000,0.0000,
935,797.72,12535.74,-12535.74,1409.4000,65535.0000,23826.2000,22416.8000,0.0000,0.0000,0.0000,
936,798.10,12529.74,-12529.74,1403.2000,65535.0000,23743.4000,22340.2000,0.0000,0.0000,0.0000,
937,798.48,12523.75,-12523.75,1436.4000,65535.0000,23791.8000,22355.4000,0.0000,0.0000,0.0000,
938,798.86,12517.77,-12517.77,1424.6000,65535.0000,23444.0000,22019.4000,0.0000,0.0000,0.0000,
939,799.25,12511.80,-12511.80,1432.6000,65535.0000,23435.6000,22003.0000,0.0000,0.0000,0.0000,
940,799.63,12505.83,-12505.83,1409.2000,65535.0000,23150.6000,21741.4000,0.0000,0.0000,0.0000,
941,800.01,12499.88,-12499.88,1417.2000,65535.0000,23201.4000,21784.2000,0.0000,0.0000,0.0000,
942,800.39,12493.94,-12493.94,1411.4000,65535.0000,23275.4000,21864.0000,0.0000,0.0000,0.0000,
943,800.77,12488.00,-12488.00,1407.0000,65535.0000,23174.8000,21767.8000,0.0000,0.0000,0.0000,
944,801.15,12482.08,-12482.08,1413.4000,65535.0000,23156.0000,21742.6000,0.0000,0.0000,0.0000,
945,801.53,12476.16,-12476.16,1401.6000,65535.0000,23034.6000,21633.0000,0.0000,0.0000,0.0000,
946,801.91,12470.25,-12470.25,1420.0000,65535.0000,22840.0000,21420.0000,0.0000,0.0000,0.0000,
947,802.29,12464.35,-12464.35,1426.8000,65535.0000,23051.8000,21625.0000,0.0000,0.0000,0.0000,
948,802.67,12458.46,-12458.46,1409.6000,65535.0000,23052.6000,21643.0000,0.0000,0.0000,0.0000,
949,803.05,12452.58,-12452.58,1403.2000,65535.0000,23141.4000,21738.2000,0.0000,0.0000,0.0000,
950,803.43,12446.71,-12446.71,1394.6000,65535.0000,23099.4000,21704.8000,0.0000,0.0000,0.0000,
951,803.80,12440.84,-12440.84,1420.8000,65535.0000,23215.0000,21794.2000,0.0000,0.0000,0.0000,
952,804.18,12434.99,-12434.99,1429.4000,65535.0000,23070.2000,21640.8000,0.0000,0.0000,0.0000,
953,804.56,12429.14,-12429.14,1423.0000,65535.0000,22983.6000,21560.6000,0.0000,0.0000,0.0000,
954,804.94,12423.30,-12423.30,1412.4000,65535.0000,23010.0000,21597.6000,0.0000,0.0000,0.0000,
955,805.32,12417.48,-12417.48,1401.4000,65535.0000,23086.4000,21685.0000,0.0000,0.0000,0.0000,
956,805.69,12411.66,-12411.66,1414.8000,65535.0000,22934.4000,21519.6000,0.0000,0.0000,0.0000,
957,806.07,12405.84,-12405.84,1422.8000,65535.0000,22735.0000,21312.2000,0.0000,0.0000,0.0000,
958,806.45,12400.04,-12400.04,1435.0000,65535.0000,22652.2000,21217.2000,0.0000,0.0000,0.0000,
959,806.83,12394.25,-12394.25,1431.2000,65535.0000,22559.6000,21128.4000,0.0000,0.0000,0.0000,
960,807.20,12388.46,-12388.46,1429.4000,65535.0000,22531.4000,21102.0000,0.0000,0.0000,0.0000,
961,807.58,12382.69,-12382.69,1407.6000,65535.0000,22472.4000,21064.8000,0.0000,0.0000,0.0000,
962,807.96,12376.92,-12376.92,1422.2000,65535.0000,22544.0000,21121.8000,0.0000,0.0000,0.0000,
963,808.33,12371.16,-12371.16,1407.8000,65535.0000,22323.0000,20915.2000,0.0000,0.0000,0.0000,
964,808.71,12365.41,-12365.41,1425.0000,65535.0000,22486.2000,21061.2000,0.0000,0.0000,0.0000,
965,809.08,12359.67,-12359.67,1422.0000,65535.0000,22336.2000,20914.2000,0.0000,0.0000,0.0000,
966,809.46,12353.93,-12353.93,1389.8000,65535.0000,22268.6000,20878.8000,0.0000,0.0000,0.0000,
967,809.83,12348.21,-12348.21,1398.4000,65535.0000,22239.8000,20841.4000,0.0000,0.0000,0.0000,
968,810.21,12342.49,-12342.49,1420.2000,65535.0000,22387.4000,20967.2000,0.0000,0.0000,0.0000,
969,810.58,12336.78,-12336.78,1429.6000,65535.0000,22240.4000,20810.8000,0.0000,0.0000,0.0000,
970,810.96,12331.08,-12331.08,1403.2000,65535.0000,22108.8000,20705.6000,0.0000,0.0000,0.0000,
971,811.33,12325.39,-12325.39,1411.8000,65535.0000,22103.4000,20691.6000,0.0000,0.0000,0.0000,
972,811.71,12319.71,-12319.71,1395.0000,65535.0000,21800.8000,20405.8000,0.0000,0.0000,0.0000,
973,812.08,12314.04,-12314.04,1406.0000,65535.0000,21961.4000,20555.4000,0.0000,0.0000,0.0000,
974,812.46,12308.37,-12308.37,1404.2000,65535.0000,21913.0000,20508.8000,0.0000,0.0000,0.0000,
975,812.83,12302.72,-12302.72,1407.2000,65535.0000,21979.6000,20572.4000,0.0000,0.0000,0.0000,
976,813.20,12297.07,-12297.07,1411.2000,65535.0000,21989.8000,20578.6000,0.0000,0.0000,0.0000,
977,813.58,12291.43,-12291.43,1407.4000,65535.0000,21791.6000,20384.2000,0.0000,0.0000,0.0000,
978,813.95,12285.79,-12285.79,1413.4000,65535.0000,21774.8000,20361.4000,0.0000,0.0000,0.0000,
979,814.32,12280.17,-12280.17,1398.2000,65535.0000,21785.0000,20386.8000,0.0000,0.0000,0.0000,
980,814.69,12274.56,-12274.56,1425.0000,65535.0000,21548.4000,20123.4000,0.0000,0.0000,0.0000,
981,815.07,12268.95,-12268.95,1404.0000,65535.0000,21710.0000,20306.0000,0.0000,0.0000,0.0000,
982,815.44,12263.35,-12263.35,1396.0000,65535.0000,21576.4000,20180.4000,0.0000,0.0000,0.0000,
983,815.81,12257.76,-12257.76,1414.2000,65535.0000,21339.6000,19925.4000,0.0000,0.0000,0.0000,
984,816.18,12252.18,-12252.18,1395.8000,65535.0000,21475.4000,20079.6000,0.0000,0.0000,0.0000,
985,816.55,12246.61,-12246.61,1423.2000,65535.0000,21513.6000,20090.4000,0.0000,0.0000,0.0000,
986,816.92,12241.04,-12241.04,1413.4000,65535.0000,21651.6000,20238.2000,0.0000,0.0000,0.0000,
987,817.29,12235.48,-12235.48,1403.6000,65535.0000,21581.4000,20177.8000,0.0000,0.0000,0.0000,
988,817.67,12229.94,-12229.94,1420.8000,65535.0000,21713.4000,20292.6000,0.0000,0.0000,0.0000,
989,818.04,12224.40,-12224.40,1420.4000,65535.0000,21782.8000,20362.4000,0.0000,0.0000,0.0000,
990,818.41,12218.86,-12218.86,1416.2000,65535.0000,21584.0000,20167.8000,0.0000,0.0000,0.0000,
991,818.78,12213.34,-12213.34,1401.0000,65535.0000,21711.8000,20310.8000,0.0000,0.0000,0.0000,
992,819.15,12207.82,-12207.82,1416.6000,65535.0000,21645.4000,20228.8000,0.0000,0.0000,0.0000,
993,819.52,12202.32,-12202.32,1399.0000,65535.0000,21448.6000,20049.6000,0.0000,0.0000,0.0000,
994,819.89,12196.82,-12196.82,1418.4000,65535.0000,21285.0000,19866.6000,0.0000,0.0000,0.0000,
995,820.26,12191.32,-12191.32,1396.6000,65535.0000,21232.8000,19836.2000,0.0000,0.0000,0.0000,
996,820.62,12185.84,-12185.84,1393.8000,65535.0000,21274.8000,19881.0000,0.0000,0.0000,0.0000,
997,820.99,12180.37,-12180.37,1393.6000,65535.0000,21243.8000,19850.2000,0.0000,0.0000,0.0000,
998,821.36,12174.90,-12174.90,1397.0000,65535.0000,21397.4000,20000.4000,0.0000,0.0000,0.0000,
999,821.73,12169.44,-12169.44,1381.8000,65535.0000,21347.4000,19965.6000,0.0000,0.0000,0.0000,
