File Version;BWSpec4.03_33_C
Date,2026-04-16 14:49:27
title,ZMYE
model,BRC1K
c code,ZMYE
operator,
port1,0
baud1,3
pixel_start,0
pixel_end,999
step,1
units,1
bkcolor,16777215
show_mode,3
data_mode,0
pixel_mode,0
intigration times(ms),10
average number,5
time_multiply,1
spectrometer_type ,71
yaxis,1
yaxis_min,-494
yaxis_max,65535
xaxis,0
xaxis_min,0
xaxis_max,999
irrands_DispWLMin,100
irrands_DispWLMax,1000
yaxis_min_6,0
yaxis_max_6,0
irradiance_unit,0
Color_Data_Flag,0
Color_StartWL,400
Color_EndWL,700
Color_IncWL,10
power_unit_index,3
photometric_index,0
Illuminant_index,3
observer_index,0
lab_l,0
lab_a,0
lab_b,0
radiometric_flag,0
coefs_a0,348.690626413622
coefs_a1,0.577242842360403
coefs_a2,-0.000102397725884922
coefs_a3,-1.43696470178894E-09
coefs_b0,-604.699216452593
coefs_b1,1.81821494738794
coefs_b2,-0.000542372268672448
coefs_b3,8.54199818797248E-07
coefs_r0,1
coefs_r1,0
coefs_r2,0
coefs_r3,0
coefs_j0,1
coefs_j1,0
coefs_j2,0
coefs_j3,0
enable_coefs_r,0
all_data_save,1
select_option,-1
interval_time,10
pixel_num,1000
sel_pixel_start,0
sel_pixel_end,968
sel_pixel_delta,1
dark_compensate,0
dark_compensate_value_1,0
dark_compensate_value_2,0
dark_compensate_value_3,0
monitor pixel_0,0
monitor pixel_1,0
monitor pixel_2,0
monitor pixel_3,0
monitor pixel_4,0
monitor pixel_5,0
vertical_select_flag,0
vertical_line3,0
vertical_line4,0
vertical_line3_wv,1
vertical_line4_wv,1
vertical_line_flag,0
vertical_line_ratio,0
laser_wavelength,0
laser_powerlevel,0
overlay_js,0
Relative Intensity Correction Flag,0
Pixel,Wavelength,Wavenumber,Raman Shift,Dark,Reference,Raw data #1,Dark Subtracted #1,%TR #1,Absorbance #1,Irradiance (lumen) #1,
0,348.69,28678.72,-28678.72,1455.8000,65535.0000,1542.8000,87.0000,0.0000,0.0000,0.0000,
1,349.27,28631.33,-28631.33,1437.0000,65535.0000,1562.4000,125.4000,0.0000,0.0000,0.0000,
2,349.84,28584.11,-28584.11,1435.6000,65535.0000,1555.4000,119.8000,0.0000,0.0000,0.0000,
3,350.42,28537.07,-28537.07,1441.8000,65535.0000,1587.8000,146.0000,0.0000,0.0000,0.0000,
4,351.00,28490.19,-28490.19,1443.2000,65535.0000,1563.6000,120.4000,0.0000,0.0000,0.0000,
5,351.57,28443.49,-28443.49,1427.8000,65535.0000,1553.6000,125.8000,0.0000,0.0000,0.0000,
6,352.15,28396.96,-28396.96,1426.2000,65535.0000,1556.0000,129.8000,0.0000,0.0000,0.0000,
7,352.73,28350.59,-28350.59,1445.0000,65535.0000,1564.4000,119.4000,0.0000,0.0000,0.0000,
8,353.30,28304.40,-28304.40,1421.2000,65535.0000,1564.0000,142.8000,0.0000,0.0000,0.0000,
9,353.88,28258.36,-28258.36,1405.2000,65535.0000,1569.8000,164.6000,0.0000,0.0000,0.0000,
10,354.45,28212.50,-28212.50,1451.6000,65535.0000,1585.4000,133.8000,0.0000,0.0000,0.0000,
11,355.03,28166.80,-28166.80,1430.0000,65535.0000,1572.4000,142.4000,0.0000,0.0000,0.0000,
12,355.60,28121.26,-28121.26,1453.0000,65535.0000,1559.2000,106.2000,0.0000,0.0000,0.0000,
13,356.18,28075.89,-28075.89,1419.8000,65535.0000,1567.6000,147.8000,0.0000,0.0000,0.0000,
14,356.75,28030.68,-28030.68,1413.6000,65535.0000,1543.4000,129.8000,0.0000,0.0000,0.0000,
15,357.33,27985.63,-27985.63,1433.0000,65535.0000,1558.4000,125.4000,0.0000,0.0000,0.0000,
16,357.90,27940.74,-27940.74,1438.6000,65535.0000,1577.8000,139.2000,0.0000,0.0000,0.0000,
17,358.47,27896.01,-27896.01,1442.2000,65535.0000,1559.2000,117.0000,0.0000,0.0000,0.0000,
18,359.05,27851.44,-27851.44,1428.0000,65535.0000,1558.4000,130.4000,0.0000,0.0000,0.0000,
19,359.62,27807.03,-27807.03,1417.0000,65535.0000,1540.6000,123.6000,0.0000,0.0000,0.0000,
20,360.19,27762.78,-27762.78,1416.6000,65535.0000,1547.6000,131.0000,0.0000,0.0000,0.0000,
21,360.77,27718.68,-27718.68,1430.4000,65535.0000,1562.4000,132.0000,0.0000,0.0000,0.0000,
22,361.34,27674.74,-27674.74,1399.2000,65535.0000,1571.4000,172.2000,0.0000,0.0000,0.0000,
23,361.91,27630.95,-27630.95,1413.2000,65535.0000,1557.0000,143.8000,0.0000,0.0000,0.0000,
24,362.49,27587.31,-27587.31,1439.8000,65535.0000,1564.6000,124.8000,0.0000,0.0000,0.0000,
25,363.06,27543.83,-27543.83,1429.4000,65535.0000,1573.2000,143.8000,0.0000,0.0000,0.0000,
26,363.63,27500.50,-27500.50,1433.0000,65535.0000,1538.6000,105.6000,0.0000,0.0000,0.0000,
27,364.20,27457.33,-27457.33,1424.6000,65535.0000,1547.4000,122.8000,0.0000,0.0000,0.0000,
28,364.77,27414.30,-27414.30,1439.0000,65535.0000,1586.6000,147.6000,0.0000,0.0000,0.0000,
29,365.34,27371.42,-27371.42,1431.8000,65535.0000,1552.4000,120.6000,0.0000,0.0000,0.0000,
30,365.92,27328.70,-27328.70,1430.6000,65535.0000,1544.0000,113.4000,0.0000,0.0000,0.0000,
31,366.49,27286.12,-27286.12,1435.2000,65535.0000,1567.4000,132.2000,0.0000,0.0000,0.0000,
32,367.06,27243.69,-27243.69,1407.2000,65535.0000,1590.0000,182.8000,0.0000,0.0000,0.0000,
33,367.63,27201.40,-27201.40,1405.6000,65535.0000,1576.0000,170.4000,0.0000,0.0000,0.0000,
34,368.20,27159.27,-27159.27,1394.8000,65535.0000,1552.8000,158.0000,0.0000,0.0000,0.0000,
35,368.77,27117.27,-27117.27,1415.4000,65535.0000,1569.2000,153.8000,0.0000,0.0000,0.0000,
36,369.34,27075.43,-27075.43,1406.0000,65535.0000,1578.4000,172.4000,0.0000,0.0000,0.0000,
37,369.91,27033.72,-27033.72,1416.6000,65535.0000,1590.2000,173.6000,0.0000,0.0000,0.0000,
38,370.48,26992.16,-26992.16,1399.2000,65535.0000,1566.0000,166.8000,0.0000,0.0000,0.0000,
39,371.05,26950.74,-26950.74,1429.0000,65535.0000,1575.4000,146.4000,0.0000,0.0000,0.0000,
40,371.62,26909.47,-26909.47,1397.6000,65535.0000,1573.4000,175.8000,0.0000,0.0000,0.0000,
41,372.19,26868.33,-26868.33,1399.0000,65535.0000,1580.6000,181.6000,0.0000,0.0000,0.0000,
42,372.75,26827.34,-26827.34,1409.6000,65535.0000,1567.0000,157.4000,0.0000,0.0000,0.0000,
43,373.32,26786.48,-26786.48,1421.6000,65535.0000,1576.4000,154.8000,0.0000,0.0000,0.0000,
44,373.89,26745.77,-26745.77,1409.2000,65535.0000,1598.2000,189.0000,0.0000,0.0000,0.0000,
45,374.46,26705.19,-26705.19,1433.4000,65535.0000,1603.2000,169.8000,0.0000,0.0000,0.0000,
46,375.03,26664.75,-26664.75,1417.2000,65535.0000,1592.8000,175.6000,0.0000,0.0000,0.0000,
47,375.59,26624.44,-26624.44,1405.6000,65535.0000,1623.4000,217.8000,0.0000,0.0000,0.0000,
48,376.16,26584.28,-26584.28,1424.8000,65535.0000,1587.4000,162.6000,0.0000,0.0000,0.0000,
49,376.73,26544.24,-26544.24,1414.6000,65535.0000,1604.0000,189.4000,0.0000,0.0000,0.0000,
50,377.30,26504.35,-26504.35,1393.4000,65535.0000,1604.0000,210.6000,0.0000,0.0000,0.0000,
51,377.86,26464.58,-26464.58,1420.4000,65535.0000,1603.6000,183.2000,0.0000,0.0000,0.0000,
52,378.43,26424.95,-26424.95,1439.4000,65535.0000,1625.0000,185.6000,0.0000,0.0000,0.0000,
53,379.00,26385.46,-26385.46,1433.4000,65535.0000,1671.8000,238.4000,0.0000,0.0000,0.0000,
54,379.56,26346.09,-26346.09,1400.2000,65535.0000,1623.2000,223.0000,0.0000,0.0000,0.0000,
55,380.13,26306.86,-26306.86,1434.4000,65535.0000,1630.6000,196.2000,0.0000,0.0000,0.0000,
56,380.69,26267.76,-26267.76,1434.2000,65535.0000,1652.2000,218.0000,0.0000,0.0000,0.0000,
57,381.26,26228.78,-26228.78,1417.8000,65535.0000,1660.2000,242.4000,0.0000,0.0000,0.0000,
58,381.83,26189.94,-26189.94,1434.2000,65535.0000,1658.2000,224.0000,0.0000,0.0000,0.0000,
59,382.39,26151.23,-26151.23,1422.6000,65535.0000,1681.6000,259.0000,0.0000,0.0000,0.0000,
60,382.96,26112.64,-26112.64,1412.4000,65535.0000,1659.2000,246.8000,0.0000,0.0000,0.0000,
61,383.52,26074.19,-26074.19,1427.0000,65535.0000,1681.0000,254.0000,0.0000,0.0000,0.0000,
62,384.09,26035.85,-26035.85,1439.2000,65535.0000,1677.6000,238.4000,0.0000,0.0000,0.0000,
63,384.65,25997.65,-25997.65,1429.8000,65535.0000,1681.8000,252.0000,0.0000,0.0000,0.0000,
64,385.21,25959.57,-25959.57,1417.4000,65535.0000,1696.6000,279.2000,0.0000,0.0000,0.0000,
65,385.78,25921.62,-25921.62,1429.6000,65535.0000,1709.4000,279.8000,0.0000,0.0000,0.0000,
66,386.34,25883.79,-25883.79,1417.6000,65535.0000,1697.0000,279.4000,0.0000,0.0000,0.0000,
67,386.91,25846.08,-25846.08,1414.2000,65535.0000,1704.4000,290.2000,0.0000,0.0000,0.0000,
68,387.47,25808.50,-25808.50,1432.8000,65535.0000,1740.2000,307.4000,0.0000,0.0000,0.0000,
69,388.03,25771.04,-25771.04,1421.4000,65535.0000,1735.4000,314.0000,0.0000,0.0000,0.0000,
70,388.60,25733.71,-25733.71,1425.6000,65535.0000,1738.0000,312.4000,0.0000,0.0000,0.0000,
71,389.16,25696.49,-25696.49,1438.8000,65535.0000,1733.8000,295.0000,0.0000,0.0000,0.0000,
72,389.72,25659.40,-25659.40,1414.0000,65535.0000,1752.2000,338.2000,0.0000,0.0000,0.0000,
73,390.28,25622.43,-25622.43,1415.2000,65535.0000,1763.6000,348.4000,0.0000,0.0000,0.0000,
74,390.85,25585.57,-25585.57,1429.8000,65535.0000,1754.8000,325.0000,0.0000,0.0000,0.0000,
75,391.41,25548.84,-25548.84,1435.0000,65535.0000,1767.8000,332.8000,0.0000,0.0000,0.0000,
76,391.97,25512.22,-25512.22,1436.0000,65535.0000,1767.6000,331.6000,0.0000,0.0000,0.0000,
77,392.53,25475.72,-25475.72,1405.0000,65535.0000,1801.0000,396.0000,0.0000,0.0000,0.0000,
78,393.09,25439.34,-25439.34,1418.0000,65535.0000,1792.2000,374.2000,0.0000,0.0000,0.0000,
79,393.65,25403.08,-25403.08,1432.4000,65535.0000,1803.6000,371.2000,0.0000,0.0000,0.0000,
80,394.21,25366.93,-25366.93,1389.4000,65535.0000,1783.8000,394.4000,0.0000,0.0000,0.0000,
81,394.77,25330.90,-25330.90,1391.2000,65535.0000,1798.4000,407.2000,0.0000,0.0000,0.0000,
82,395.34,25294.99,-25294.99,1415.4000,65535.0000,1804.6000,389.2000,0.0000,0.0000,0.0000,
83,395.90,25259.19,-25259.19,1402.8000,65535.0000,1836.8000,434.0000,0.0000,0.0000,0.0000,
84,396.46,25223.50,-25223.50,1406.6000,65535.0000,1815.6000,409.0000,0.0000,0.0000,0.0000,
85,397.02,25187.93,-25187.93,1403.4000,65535.0000,1833.6000,430.2000,0.0000,0.0000,0.0000,
86,397.58,25152.47,-25152.47,1436.8000,65535.0000,1855.2000,418.4000,0.0000,0.0000,0.0000,
87,398.13,25117.12,-25117.12,1410.8000,65535.0000,1853.6000,442.8000,0.0000,0.0000,0.0000,
88,398.69,25081.89,-25081.89,1427.8000,65535.0000,1895.0000,467.2000,0.0000,0.0000,0.0000,
89,399.25,25046.77,-25046.77,1432.0000,65535.0000,1842.6000,410.6000,0.0000,0.0000,0.0000,
90,399.81,25011.75,-25011.75,1427.2000,65535.0000,1876.2000,449.0000,0.0000,0.0000,0.0000,
91,400.37,24976.85,-24976.85,1426.0000,65535.0000,1896.8000,470.8000,0.0000,0.0000,0.0000,
92,400.93,24942.06,-24942.06,1410.4000,65535.0000,1906.4000,496.0000,0.0000,0.0000,0.0000,
93,401.49,24907.38,-24907.38,1424.2000,65535.0000,1883.6000,459.4000,0.0000,0.0000,0.0000,
94,402.05,24872.81,-24872.81,1433.8000,65535.0000,1917.6000,483.8000,0.0000,0.0000,0.0000,
95,402.60,24838.34,-24838.34,1420.2000,65535.0000,1912.8000,492.6000,0.0000,0.0000,0.0000,
96,403.16,24803.99,-24803.99,1407.4000,65535.0000,1918.2000,510.8000,0.0000,0.0000,0.0000,
97,403.72,24769.74,-24769.74,1425.2000,65535.0000,1937.0000,511.8000,0.0000,0.0000,0.0000,
98,404.28,24735.60,-24735.60,1430.2000,65535.0000,1966.0000,535.8000,0.0000,0.0000,0.0000,
99,404.83,24701.56,-24701.56,1421.2000,65535.0000,1967.0000,545.8000,0.0000,0.0000,0.0000,
100,405.39,24667.63,-24667.63,1412.6000,65535.0000,1970.4000,557.8000,0.0000,0.0000,0.0000,
101,405.95,24633.81,-24633.81,1403.0000,65535.0000,1992.6000,589.6000,0.0000,0.0000,0.0000,
102,406.50,24600.09,-24600.09,1420.0000,65535.0000,2015.8000,595.8000,0.0000,0.0000,0.0000,
103,407.06,24566.48,-24566.48,1425.2000,65535.0000,2043.8000,618.6000,0.0000,0.0000,0.0000,
104,407.61,24532.97,-24532.97,1437.0000,65535.0000,2014.6000,577.6000,0.0000,0.0000,0.0000,
105,408.17,24499.56,-24499.56,1421.4000,65535.0000,2037.8000,616.4000,0.0000,0.0000,0.0000,
106,408.73,24466.26,-24466.26,1426.6000,65535.0000,2056.0000,629.4000,0.0000,0.0000,0.0000,
107,409.28,24433.06,-24433.06,1420.8000,65535.0000,2090.0000,669.2000,0.0000,0.0000,0.0000,
108,409.84,24399.96,-24399.96,1438.4000,65535.0000,2075.6000,637.2000,0.0000,0.0000,0.0000,
109,410.39,24366.97,-24366.97,1438.4000,65535.0000,2086.6000,648.2000,0.0000,0.0000,0.0000,
110,410.95,24334.07,-24334.07,1442.6000,65535.0000,2135.0000,692.4000,0.0000,0.0000,0.0000,
111,411.50,24301.28,-24301.28,1451.6000,65535.0000,2152.0000,700.4000,0.0000,0.0000,0.0000,
112,412.06,24268.59,-24268.59,1400.2000,65535.0000,2154.8000,754.6000,0.0000,0.0000,0.0000,
113,412.61,24235.99,-24235.99,1438.2000,65535.0000,2162.0000,723.8000,0.0000,0.0000,0.0000,
114,413.16,24203.50,-24203.50,1410.2000,65535.0000,2182.4000,772.2000,0.0000,0.0000,0.0000,
115,413.72,24171.10,-24171.10,1430.0000,65535.0000,2157.2000,727.2000,0.0000,0.0000,0.0000,
116,414.27,24138.81,-24138.81,1424.0000,65535.0000,2161.2000,737.2000,0.0000,0.0000,0.0000,
117,414.82,24106.61,-24106.61,1450.4000,65535.0000,2168.6000,718.2000,0.0000,0.0000,0.0000,
118,415.38,24074.51,-24074.51,1418.4000,65535.0000,2218.8000,800.4000,0.0000,0.0000,0.0000,
119,415.93,24042.50,-24042.50,1428.2000,65535.0000,2226.8000,798.6000,0.0000,0.0000,0.0000,
120,416.48,24010.60,-24010.60,1426.2000,65535.0000,2217.4000,791.2000,0.0000,0.0000,0.0000,
121,417.04,23978.79,-23978.79,1444.6000,65535.0000,2240.6000,796.0000,0.0000,0.0000,0.0000,
122,417.59,23947.07,-23947.07,1401.2000,65535.0000,2282.4000,881.2000,0.0000,0.0000,0.0000,
123,418.14,23915.46,-23915.46,1419.8000,65535.0000,2300.4000,880.6000,0.0000,0.0000,0.0000,
124,418.69,23883.93,-23883.93,1437.6000,65535.0000,2313.2000,875.6000,0.0000,0.0000,0.0000,
125,419.24,23852.50,-23852.50,1425.6000,65535.0000,2336.6000,911.0000,0.0000,0.0000,0.0000,
126,419.79,23821.17,-23821.17,1416.8000,65535.0000,2305.8000,889.0000,0.0000,0.0000,0.0000,
127,420.35,23789.93,-23789.93,1415.8000,65535.0000,2328.0000,912.2000,0.0000,0.0000,0.0000,
128,420.90,23758.78,-23758.78,1401.8000,65535.0000,2335.4000,933.6000,0.0000,0.0000,0.0000,
129,421.45,23727.73,-23727.73,1415.8000,65535.0000,2357.4000,941.6000,0.0000,0.0000,0.0000,
130,422.00,23696.77,-23696.77,1426.2000,65535.0000,2363.8000,937.6000,0.0000,0.0000,0.0000,
131,422.55,23665.90,-23665.90,1423.0000,65535.0000,2395.6000,972.6000,0.0000,0.0000,0.0000,
132,423.10,23635.12,-23635.12,1418.4000,65535.0000,2421.0000,1002.6000,0.0000,0.0000,0.0000,
133,423.65,23604.43,-23604.43,1439.0000,65535.0000,2429.2000,990.2000,0.0000,0.0000,0.0000,
134,424.20,23573.84,-23573.84,1426.2000,65535.0000,2439.8000,1013.6000,0.0000,0.0000,0.0000,
135,424.75,23543.33,-23543.33,1424.2000,65535.0000,2486.2000,1062.0000,0.0000,0.0000,0.0000,
136,425.30,23512.92,-23512.92,1409.8000,65535.0000,2477.2000,1067.4000,0.0000,0.0000,0.0000,
137,425.85,23482.60,-23482.60,1418.2000,65535.0000,2502.8000,1084.6000,0.0000,0.0000,0.0000,
138,426.40,23452.36,-23452.36,1412.4000,65535.0000,2528.4000,1116.0000,0.0000,0.0000,0.0000,
139,426.95,23422.22,-23422.22,1407.2000,65535.0000,2564.2000,1157.0000,0.0000,0.0000,0.0000,
140,427.49,23392.16,-23392.16,1409.6000,65535.0000,2592.0000,1182.4000,0.0000,0.0000,0.0000,
141,428.04,23362.19,-23362.19,1397.4000,65535.0000,2653.8000,1256.4000,0.0000,0.0000,0.0000,
142,428.59,23332.31,-23332.31,1421.4000,65535.0000,2636.8000,1215.4000,0.0000,0.0000,0.0000,
143,429.14,23302.52,-23302.52,1428.0000,65535.0000,2692.0000,1264.0000,0.0000,0.0000,0.0000,
144,429.69,23272.81,-23272.81,1422.0000,65535.0000,2670.6000,1248.6000,0.0000,0.0000,0.0000,
145,430.23,23243.19,-23243.19,1401.2000,65535.0000,2704.2000,1303.0000,0.0000,0.0000,0.0000,
146,430.78,23213.66,-23213.66,1403.0000,65535.0000,2722.4000,1319.4000,0.0000,0.0000,0.0000,
147,431.33,23184.21,-23184.21,1408.0000,65535.0000,2746.0000,1338.0000,0.0000,0.0000,0.0000,
148,431.87,23154.85,-23154.85,1434.4000,65535.0000,2768.6000,1334.2000,0.0000,0.0000,0.0000,
149,432.42,23125.57,-23125.57,1431.2000,65535.0000,2790.2000,1359.0000,0.0000,0.0000,0.0000,
150,432.97,23096.38,-23096.38,1420.8000,65535.0000,2814.0000,1393.2000,0.0000,0.0000,0.0000,
151,433.51,23067.28,-23067.28,1429.6000,65535.0000,2854.8000,1425.2000,0.0000,0.0000,0.0000,
152,434.06,23038.25,-23038.25,1442.0000,65535.0000,2842.2000,1400.2000,0.0000,0.0000,0.0000,
153,434.61,23009.31,-23009.31,1400.6000,65535.0000,2856.8000,1456.2000,0.0000,0.0000,0.0000,
154,435.15,22980.46,-22980.46,1424.0000,65535.0000,2902.0000,1478.0000,0.0000,0.0000,0.0000,
155,435.70,22951.69,-22951.69,1444.0000,65535.0000,2931.6000,1487.6000,0.0000,0.0000,0.0000,
156,436.24,22923.00,-22923.00,1405.6000,65535.0000,2935.8000,1530.2000,0.0000,0.0000,0.0000,
157,436.79,22894.39,-22894.39,1435.6000,65535.0000,3011.0000,1575.4000,0.0000,0.0000,0.0000,
158,437.33,22865.87,-22865.87,1424.6000,65535.0000,2998.0000,1573.4000,0.0000,0.0000,0.0000,
159,437.88,22837.42,-22837.42,1419.6000,65535.0000,3003.4000,1583.8000,0.0000,0.0000,0.0000,
160,438.42,22809.06,-22809.06,1407.6000,65535.0000,3030.4000,1622.8000,0.0000,0.0000,0.0000,
161,438.97,22780.78,-22780.78,1416.4000,65535.0000,3061.4000,1645.0000,0.0000,0.0000,0.0000,
162,439.51,22752.58,-22752.58,1407.6000,65535.0000,3082.4000,1674.8000,0.0000,0.0000,0.0000,
163,440.05,22724.46,-22724.46,1408.2000,65535.0000,3120.8000,1712.6000,0.0000,0.0000,0.0000,
164,440.60,22696.42,-22696.42,1433.0000,65535.0000,3149.2000,1716.2000,0.0000,0.0000,0.0000,
165,441.14,22668.47,-22668.47,1406.2000,65535.0000,3169.4000,1763.2000,0.0000,0.0000,0.0000,
166,441.68,22640.59,-22640.59,1404.6000,65535.0000,3171.0000,1766.4000,0.0000,0.0000,0.0000,
167,442.23,22612.78,-22612.78,1424.4000,65535.0000,3200.2000,1775.8000,0.0000,0.0000,0.0000,
168,442.77,22585.06,-22585.06,1406.0000,65535.0000,3250.4000,1844.4000,0.0000,0.0000,0.0000,
169,443.31,22557.42,-22557.42,1427.2000,65535.0000,3270.4000,1843.2000,0.0000,0.0000,0.0000,
170,443.86,22529.85,-22529.85,1429.4000,65535.0000,3244.8000,1815.4000,0.0000,0.0000,0.0000,
171,444.40,22502.36,-22502.36,1406.8000,65535.0000,3344.8000,1938.0000,0.0000,0.0000,0.0000,
172,444.94,22474.95,-22474.95,1407.2000,65535.0000,3357.2000,1950.0000,0.0000,0.0000,0.0000,
173,445.48,22447.62,-22447.62,1428.6000,65535.0000,3395.4000,1966.8000,0.0000,0.0000,0.0000,
174,446.02,22420.36,-22420.36,1424.6000,65535.0000,3403.4000,1978.8000,0.0000,0.0000,0.0000,
175,446.56,22393.18,-22393.18,1410.8000,65535.0000,3469.2000,2058.4000,0.0000,0.0000,0.0000,
176,447.11,22366.08,-22366.08,1412.8000,65535.0000,3442.0000,2029.2000,0.0000,0.0000,0.0000,
177,447.65,22339.05,-22339.05,1404.0000,65535.0000,3526.4000,2122.4000,0.0000,0.0000,0.0000,
178,448.19,22312.10,-22312.10,1411.2000,65535.0000,3502.8000,2091.6000,0.0000,0.0000,0.0000,
179,448.73,22285.22,-22285.22,1419.4000,65535.0000,3563.0000,2143.6000,0.0000,0.0000,0.0000,
180,449.27,22258.42,-22258.42,1463.8000,65535.0000,3583.0000,2119.2000,0.0000,0.0000,0.0000,
181,449.81,22231.69,-22231.69,1406.4000,65535.0000,3631.0000,2224.6000,0.0000,0.0000,0.0000,
182,450.35,22205.03,-22205.03,1390.4000,65535.0000,3675.6000,2285.2000,0.0000,0.0000,0.0000,
183,450.89,22178.45,-22178.45,1437.8000,65535.0000,3675.8000,2238.0000,0.0000,0.0000,0.0000,
184,451.43,22151.95,-22151.95,1407.4000,65535.0000,3760.6000,2353.2000,0.0000,0.0000,0.0000,
185,451.97,22125.51,-22125.51,1409.0000,65535.0000,3798.2000,2389.2000,0.0000,0.0000,0.0000,
186,452.51,22099.15,-22099.15,1421.0000,65535.0000,3788.4000,2367.4000,0.0000,0.0000,0.0000,
187,453.04,22072.87,-22072.87,1436.0000,65535.0000,3841.2000,2405.2000,0.0000,0.0000,0.0000,
188,453.58,22046.65,-22046.65,1442.0000,65535.0000,3876.2000,2434.2000,0.0000,0.0000,0.0000,
189,454.12,22020.51,-22020.51,1437.8000,65535.0000,3938.0000,2500.2000,0.0000,0.0000,0.0000,
190,454.66,21994.44,-21994.44,1446.6000,65535.0000,3995.2000,2548.6000,0.0000,0.0000,0.0000,
191,455.20,21968.44,-21968.44,1433.2000,65535.0000,4057.0000,2623.8000,0.0000,0.0000,0.0000,
192,455.74,21942.51,-21942.51,1407.0000,65535.0000,4045.6000,2638.6000,0.0000,0.0000,0.0000,
193,456.27,21916.66,-21916.66,1424.6000,65535.0000,4152.4000,2727.8000,0.0000,0.0000,0.0000,
194,456.81,21890.87,-21890.87,1415.6000,65535.0000,4158.8000,2743.2000,0.0000,0.0000,0.0000,
195,457.35,21865.16,-21865.16,1449.0000,65535.0000,4157.8000,2708.8000,0.0000,0.0000,0.0000,
196,457.89,21839.51,-21839.51,1416.0000,65535.0000,4249.2000,2833.2000,0.0000,0.0000,0.0000,
197,458.42,21813.94,-21813.94,1401.4000,65535.0000,4263.4000,2862.0000,0.0000,0.0000,0.0000,
198,458.96,21788.43,-21788.43,1413.2000,65535.0000,4370.6000,2957.4000,0.0000,0.0000,0.0000,
199,459.50,21763.00,-21763.00,1415.8000,65535.0000,4400.2000,2984.4000,0.0000,0.0000,0.0000,
200,460.03,21737.63,-21737.63,1434.6000,65535.0000,4402.6000,2968.0000,0.0000,0.0000,0.0000,
201,460.57,21712.33,-21712.33,1443.6000,65535.0000,4474.2000,3030.6000,0.0000,0.0000,0.0000,
202,461.10,21687.10,-21687.10,1409.4000,65535.0000,4527.6000,3118.2000,0.0000,0.0000,0.0000,
203,461.64,21661.94,-21661.94,1435.8000,65535.0000,4581.2000,3145.4000,0.0000,0.0000,0.0000,
204,462.17,21636.85,-21636.85,1437.0000,65535.0000,4567.4000,3130.4000,0.0000,0.0000,0.0000,
205,462.71,21611.82,-21611.82,1436.6000,65535.0000,4633.6000,3197.0000,0.0000,0.0000,0.0000,
206,463.24,21586.86,-21586.86,1405.4000,65535.0000,4663.0000,3257.6000,0.0000,0.0000,0.0000,
207,463.78,21561.97,-21561.97,1437.8000,65535.0000,4661.4000,3223.6000,0.0000,0.0000,0.0000,
208,464.31,21537.15,-21537.15,1414.2000,65535.0000,4682.6000,3268.4000,0.0000,0.0000,0.0000,
209,464.85,21512.39,-21512.39,1427.4000,65535.0000,4735.6000,3308.2000,0.0000,0.0000,0.0000,
210,465.38,21487.70,-21487.70,1391.6000,65535.0000,4787.8000,3396.2000,0.0000,0.0000,0.0000,
211,465.92,21463.07,-21463.07,1400.0000,65535.0000,4849.2000,3449.2000,0.0000,0.0000,0.0000,
212,466.45,21438.51,-21438.51,1424.8000,65535.0000,4918.6000,3493.8000,0.0000,0.0000,0.0000,
213,466.98,21414.02,-21414.02,1447.6000,65535.0000,4993.6000,3546.0000,0.0000,0.0000,0.0000,
214,467.52,21389.59,-21389.59,1430.0000,65535.0000,5029.4000,3599.4000,0.0000,0.0000,0.0000,
215,468.05,21365.23,-21365.23,1423.6000,65535.0000,5082.6000,3659.0000,0.0000,0.0000,0.0000,
216,468.58,21340.93,-21340.93,1410.0000,65535.0000,5088.8000,3678.8000,0.0000,0.0000,0.0000,
217,469.12,21316.70,-21316.70,1423.0000,65535.0000,5235.8000,3812.8000,0.0000,0.0000,0.0000,
218,469.65,21292.53,-21292.53,1416.2000,65535.0000,5351.2000,3935.0000,0.0000,0.0000,0.0000,
219,470.18,21268.42,-21268.42,1394.8000,65535.0000,5380.0000,3985.2000,0.0000,0.0000,0.0000,
220,470.71,21244.38,-21244.38,1421.0000,65535.0000,5452.4000,4031.4000,0.0000,0.0000,0.0000,
221,471.24,21220.40,-21220.40,1403.4000,65535.0000,5598.6000,4195.2000,0.0000,0.0000,0.0000,
222,471.78,21196.49,-21196.49,1415.4000,65535.0000,5688.4000,4273.0000,0.0000,0.0000,0.0000,
223,472.31,21172.64,-21172.64,1428.8000,65535.0000,5744.2000,4315.4000,0.0000,0.0000,0.0000,
224,472.84,21148.85,-21148.85,1434.2000,65535.0000,5881.6000,4447.4000,0.0000,0.0000,0.0000,
225,473.37,21125.12,-21125.12,1426.0000,65535.0000,6056.8000,4630.8000,0.0000,0.0000,0.0000,
226,473.90,21101.46,-21101.46,1435.0000,65535.0000,6095.8000,4660.8000,0.0000,0.0000,0.0000,
227,474.43,21077.86,-21077.86,1442.6000,65535.0000,6178.6000,4736.0000,0.0000,0.0000,0.0000,
228,474.96,21054.32,-21054.32,1428.2000,65535.0000,6316.4000,4888.2000,0.0000,0.0000,0.0000,
229,475.49,21030.84,-21030.84,1433.6000,65535.0000,6420.6000,4987.0000,0.0000,0.0000,0.0000,
230,476.02,21007.43,-21007.43,1421.6000,65535.0000,6677.2000,5255.6000,0.0000,0.0000,0.0000,
231,476.55,20984.07,-20984.07,1407.8000,65535.0000,6712.4000,5304.6000,0.0000,0.0000,0.0000,
232,477.08,20960.78,-20960.78,1435.2000,65535.0000,6888.4000,5453.2000,0.0000,0.0000,0.0000,
233,477.61,20937.54,-20937.54,1416.0000,65535.0000,7033.0000,5617.0000,0.0000,0.0000,0.0000,
234,478.14,20914.37,-20914.37,1424.0000,65535.0000,7143.6000,5719.6000,0.0000,0.0000,0.0000,
235,478.67,20891.26,-20891.26,1398.0000,65535.0000,7333.8000,5935.8000,0.0000,0.0000,0.0000,
236,479.20,20868.20,-20868.20,1430.8000,65535.0000,7545.2000,6114.4000,0.0000,0.0000,0.0000,
237,479.73,20845.21,-20845.21,1390.8000,65535.0000,7699.4000,6308.6000,0.0000,0.0000,0.0000,
238,480.25,20822.28,-20822.28,1417.0000,65535.0000,7855.2000,6438.2000,0.0000,0.0000,0.0000,
239,480.78,20799.40,-20799.40,1440.0000,65535.0000,8087.6000,6647.6000,0.0000,0.0000,0.0000,
240,481.31,20776.59,-20776.59,1408.4000,65535.0000,8254.8000,6846.4000,0.0000,0.0000,0.0000,
241,481.84,20753.83,-20753.83,1415.4000,65535.0000,8343.6000,6928.2000,0.0000,0.0000,0.0000,
242,482.37,20731.14,-20731.14,1424.8000,65535.0000,8581.8000,7157.0000,0.0000,0.0000,0.0000,
243,482.89,20708.50,-20708.50,1414.8000,65535.0000,8731.6000,7316.8000,0.0000,0.0000,0.0000,
244,483.42,20685.92,-20685.92,1420.2000,65535.0000,8996.6000,7576.4000,0.0000,0.0000,0.0000,
245,483.95,20663.40,-20663.40,1435.0000,65535.0000,9204.2000,7769.2000,0.0000,0.0000,0.0000,
246,484.47,20640.93,-20640.93,1409.2000,65535.0000,9269.0000,7859.8000,0.0000,0.0000,0.0000,
247,485.00,20618.52,-20618.52,1408.2000,65535.0000,9474.8000,8066.6000,0.0000,0.0000,0.0000,
248,485.53,20596.17,-20596.17,1440.2000,65535.0000,9695.4000,8255.2000,0.0000,0.0000,0.0000,
249,486.05,20573.88,-20573.88,1427.6000,65535.0000,9877.8000,8450.2000,0.0000,0.0000,0.0000,
250,486.58,20551.65,-20551.65,1400.6000,65535.0000,10077.6000,8677.0000,0.0000,0.0000,0.0000,
251,487.10,20529.47,-20529.47,1416.6000,65535.0000,10300.2000,8883.6000,0.0000,0.0000,0.0000,
252,487.63,20507.35,-20507.35,1444.0000,65535.0000,10490.0000,9046.0000,0.0000,0.0000,0.0000,
253,488.16,20485.28,-20485.28,1396.6000,65535.0000,10482.0000,9085.4000,0.0000,0.0000,0.0000,
254,488.68,20463.27,-20463.27,1395.4000,65535.0000,10691.8000,9296.4000,0.0000,0.0000,0.0000,
255,489.21,20441.32,-20441.32,1398.2000,65535.0000,10957.4000,9559.2000,0.0000,0.0000,0.0000,
256,489.73,20419.42,-20419.42,1405.6000,65535.0000,11152.2000,9746.6000,0.0000,0.0000,0.0000,
257,490.25,20397.57,-20397.57,1426.2000,65535.0000,11260.4000,9834.2000,0.0000,0.0000,0.0000,
258,490.78,20375.79,-20375.79,1418.6000,65535.0000,11475.8000,10057.2000,0.0000,0.0000,0.0000,
259,491.30,20354.05,-20354.05,1415.6000,65535.0000,11569.0000,10153.4000,0.0000,0.0000,0.0000,
260,491.83,20332.38,-20332.38,1386.0000,65535.0000,11779.2000,10393.2000,0.0000,0.0000,0.0000,
261,492.35,20310.75,-20310.75,1400.6000,65535.0000,11826.4000,10425.8000,0.0000,0.0000,0.0000,
262,492.87,20289.19,-20289.19,1425.4000,65535.0000,11908.8000,10483.4000,0.0000,0.0000,0.0000,
263,493.40,20267.67,-20267.67,1402.0000,65535.0000,11933.2000,10531.2000,0.0000,0.0000,0.0000,
264,493.92,20246.21,-20246.21,1420.2000,65535.0000,12161.6000,10741.4000,0.0000,0.0000,0.0000,
265,494.44,20224.80,-20224.80,1418.6000,65535.0000,12319.8000,10901.2000,0.0000,0.0000,0.0000,
266,494.96,20203.45,-20203.45,1414.4000,65535.0000,12318.2000,10903.8000,0.0000,0.0000,0.0000,
267,495.49,20182.15,-20182.15,1403.8000,65535.0000,12539.4000,11135.6000,0.0000,0.0000,0.0000,
268,496.01,20160.91,-20160.91,1415.0000,65535.0000,12668.2000,11253.2000,0.0000,0.0000,0.0000,
269,496.53,20139.71,-20139.71,1422.6000,65535.0000,12832.2000,11409.6000,0.0000,0.0000,0.0000,
270,497.05,20118.57,-20118.57,1403.6000,65535.0000,12747.4000,11343.8000,0.0000,0.0000,0.0000,
271,497.57,20097.49,-20097.49,1409.4000,65535.0000,12938.8000,11529.4000,0.0000,0.0000,0.0000,
272,498.10,20076.45,-20076.45,1422.8000,65535.0000,13141.2000,11718.4000,0.0000,0.0000,0.0000,
273,498.62,20055.47,-20055.47,1410.8000,65535.0000,13214.8000,11804.0000,0.0000,0.0000,0.0000,
274,499.14,20034.54,-20034.54,1399.2000,65535.0000,13253.4000,11854.2000,0.0000,0.0000,0.0000,
275,499.66,20013.66,-20013.66,1401.6000,65535.0000,13355.0000,11953.4000,0.0000,0.0000,0.0000,
276,500.18,19992.83,-19992.83,1426.8000,65535.0000,13604.0000,12177.2000,0.0000,0.0000,0.0000,
277,500.70,19972.06,-19972.06,1408.2000,65535.0000,13650.8000,12242.6000,0.0000,0.0000,0.0000,
278,501.22,19951.34,-19951.34,1401.8000,65535.0000,13844.0000,12442.2000,0.0000,0.0000,0.0000,
279,501.74,19930.66,-19930.66,1416.2000,65535.0000,13934.0000,12517.8000,0.0000,0.0000,0.0000,
280,502.26,19910.04,-19910.04,1417.2000,65535.0000,13954.2000,12537.0000,0.0000,0.0000,0.0000,
281,502.78,19889.47,-19889.47,1439.2000,65535.0000,14168.6000,12729.4000,0.0000,0.0000,0.0000,
282,503.30,19868.95,-19868.95,1414.4000,65535.0000,14364.0000,12949.6000,0.0000,0.0000,0.0000,
283,503.82,19848.48,-19848.48,1430.8000,65535.0000,14405.6000,12974.8000,0.0000,0.0000,0.0000,
284,504.34,19828.06,-19828.06,1421.2000,65535.0000,14599.0000,13177.8000,0.0000,0.0000,0.0000,
285,504.85,19807.69,-19807.69,1398.2000,65535.0000,14701.0000,13302.8000,0.0000,0.0000,0.0000,
286,505.37,19787.38,-19787.38,1436.8000,65535.0000,14839.0000,13402.2000,0.0000,0.0000,0.0000,
287,505.89,19767.11,-19767.11,1422.4000,65535.0000,14981.2000,13558.8000,0.0000,0.0000,0.0000,
288,506.41,19746.89,-19746.89,1425.6000,65535.0000,14982.8000,13557.2000,0.0000,0.0000,0.0000,
289,506.93,19726.72,-19726.72,1418.0000,65535.0000,15213.6000,13795.6000,0.0000,0.0000,0.0000,
290,507.44,19706.59,-19706.59,1412.6000,65535.0000,15349.8000,13937.2000,0.0000,0.0000,0.0000,
291,507.96,19686.52,-19686.52,1443.4000,65535.0000,15480.0000,14036.6000,0.0000,0.0000,0.0000,
292,508.48,19666.50,-19666.50,1411.8000,65535.0000,15609.4000,14197.6000,0.0000,0.0000,0.0000,
293,509.00,19646.52,-19646.52,1422.8000,65535.0000,15838.8000,14416.0000,0.0000,0.0000,0.0000,
294,509.51,19626.60,-19626.60,1414.0000,65535.0000,16052.6000,14638.6000,0.0000,0.0000,0.0000,
295,510.03,19606.72,-19606.72,1404.0000,65535.0000,16198.8000,14794.8000,0.0000,0.0000,0.0000,
296,510.55,19586.89,-19586.89,1411.6000,65535.0000,16427.6000,15016.0000,0.0000,0.0000,0.0000,
297,511.06,19567.11,-19567.11,1425.4000,65535.0000,16505.2000,15079.8000,0.0000,0.0000,0.0000,
298,511.58,19547.38,-19547.38,1418.0000,65535.0000,16732.8000,15314.8000,0.0000,0.0000,0.0000,
299,512.09,19527.69,-19527.69,1430.6000,65535.0000,16897.4000,15466.8000,0.0000,0.0000,0.0000,
300,512.61,19508.05,-19508.05,1429.2000,65535.0000,17079.0000,15649.8000,0.0000,0.0000,0.0000,
301,513.12,19488.46,-19488.46,1409.0000,65535.0000,17154.4000,15745.4000,0.0000,0.0000,0.0000,
302,513.64,19468.92,-19468.92,1440.2000,65535.0000,17293.4000,15853.2000,0.0000,0.0000,0.0000,
303,514.15,19449.42,-19449.42,1416.4000,65535.0000,17524.2000,16107.8000,0.0000,0.0000,0.0000,
304,514.67,19429.97,-19429.97,1425.8000,65535.0000,17611.0000,16185.2000,0.0000,0.0000,0.0000,
305,515.18,19410.56,-19410.56,1403.4000,65535.0000,17935.2000,16531.8000,0.0000,0.0000,0.0000,
306,515.70,19391.21,-19391.21,1413.0000,65535.0000,18061.4000,16648.4000,0.0000,0.0000,0.0000,
307,516.21,19371.90,-19371.90,1417.2000,65535.0000,18316.6000,16899.4000,0.0000,0.0000,0.0000,
308,516.73,19352.63,-19352.63,1426.8000,65535.0000,18517.4000,17090.6000,0.0000,0.0000,0.0000,
309,517.24,19333.41,-19333.41,1420.8000,65535.0000,18728.0000,17307.2000,0.0000,0.0000,0.0000,
310,517.75,19314.24,-19314.24,1415.2000,65535.0000,18913.0000,17497.8000,0.0000,0.0000,0.0000,
311,518.27,19295.11,-19295.11,1402.8000,65535.0000,18983.8000,17581.0000,0.0000,0.0000,0.0000,
312,518.78,19276.03,-19276.03,1409.6000,65535.0000,19315.8000,17906.2000,0.0000,0.0000,0.0000,
313,519.29,19257.00,-19257.00,1408.8000,65535.0000,19455.0000,18046.2000,0.0000,0.0000,0.0000,
314,519.80,19238.01,-19238.01,1414.2000,65535.0000,19552.6000,18138.4000,0.0000,0.0000,0.0000,
315,520.32,19219.06,-19219.06,1422.8000,65535.0000,19603.2000,18180.4000,0.0000,0.0000,0.0000,
316,520.83,19200.16,-19200.16,1425.0000,65535.0000,19959.0000,18534.0000,0.0000,0.0000,0.0000,
317,521.34,19181.30,-19181.30,1414.8000,65535.0000,20242.6000,18827.8000,0.0000,0.0000,0.0000,
318,521.85,19162.49,-19162.49,1416.6000,65535.0000,20471.2000,19054.6000,0.0000,0.0000,0.0000,
319,522.36,19143.73,-19143.73,1409.4000,65535.0000,20645.0000,19235.6000,0.0000,0.0000,0.0000,
320,522.88,19125.00,-19125.00,1437.8000,65535.0000,20853.0000,19415.2000,0.0000,0.0000,0.0000,
321,523.39,19106.33,-19106.33,1408.0000,65535.0000,20955.2000,19547.2000,0.0000,0.0000,0.0000,
322,523.90,19087.69,-19087.69,1437.0000,65535.0000,21254.4000,19817.4000,0.0000,0.0000,0.0000,
323,524.41,19069.10,-19069.10,1414.4000,65535.0000,21502.4000,20088.0000,0.0000,0.0000,0.0000,
324,524.92,19050.55,-19050.55,1397.2000,65535.0000,21564.8000,20167.6000,0.0000,0.0000,0.0000,
325,525.43,19032.05,-19032.05,1424.0000,65535.0000,21858.6000,20434.6000,0.0000,0.0000,0.0000,
326,525.94,19013.59,-19013.59,1453.2000,65535.0000,21898.2000,20445.0000,0.0000,0.0000,0.0000,
327,526.45,18995.17,-18995.17,1422.8000,65535.0000,22153.2000,20730.4000,0.0000,0.0000,0.0000,
328,526.96,18976.80,-18976.80,1414.6000,65535.0000,22363.2000,20948.6000,0.0000,0.0000,0.0000,
329,527.47,18958.47,-18958.47,1409.0000,65535.0000,22348.0000,20939.0000,0.0000,0.0000,0.0000,
330,527.98,18940.18,-18940.18,1382.0000,65535.0000,22542.8000,21160.8000,0.0000,0.0000,0.0000,
331,528.49,18921.94,-18921.94,1399.6000,65535.0000,22729.2000,21329.6000,0.0000,0.0000,0.0000,
332,529.00,18903.74,-18903.74,1426.0000,65535.0000,22663.6000,21237.6000,0.0000,0.0000,0.0000,
333,529.50,18885.58,-18885.58,1419.0000,65535.0000,22873.2000,21454.2000,0.0000,0.0000,0.0000,
334,530.01,18867.46,-18867.46,1428.2000,65535.0000,23035.6000,21607.4000,0.0000,0.0000,0.0000,
335,530.52,18849.38,-18849.38,1412.8000,65535.0000,23064.0000,21651.2000,0.0000,0.0000,0.0000,
336,531.03,18831.35,-18831.35,1404.0000,65535.0000,23097.6000,21693.6000,0.0000,0.0000,0.0000,
337,531.54,18813.36,-18813.36,1405.6000,65535.0000,23133.0000,21727.4000,0.0000,0.0000,0.0000,
338,532.04,18795.41,-18795.41,1434.8000,65535.0000,23105.2000,21670.4000,0.0000,0.0000,0.0000,
339,532.55,18777.50,-18777.50,1430.2000,65535.0000,23462.6000,22032.4000,0.0000,0.0000,0.0000,
340,533.06,18759.63,-18759.63,1399.0000,65535.0000,23588.8000,22189.8000,0.0000,0.0000,0.0000,
341,533.57,18741.80,-18741.80,1426.2000,65535.0000,23576.0000,22149.8000,0.0000,0.0000,0.0000,
342,534.07,18724.02,-18724.02,1395.0000,65535.0000,23725.6000,22330.6000,0.0000,0.0000,0.0000,
343,534.58,18706.28,-18706.28,1424.2000,65535.0000,23768.6000,22344.4000,0.0000,0.0000,0.0000,
344,535.09,18688.57,-18688.57,1433.6000,65535.0000,23920.8000,22487.2000,0.0000,0.0000,0.0000,
345,535.59,18670.91,-18670.91,1414.6000,65535.0000,23934.0000,22519.4000,0.0000,0.0000,0.0000,
346,536.10,18653.29,-18653.29,1405.8000,65535.0000,24101.0000,22695.2000,0.0000,0.0000,0.0000,
347,536.60,18635.71,-18635.71,1402.8000,65535.0000,24109.2000,22706.4000,0.0000,0.0000,0.0000,
348,537.11,18618.17,-18618.17,1399.0000,65535.0000,24215.8000,22816.8000,0.0000,0.0000,0.0000,
349,537.62,18600.67,-18600.67,1403.0000,65535.0000,24395.6000,22992.6000,0.0000,0.0000,0.0000,
350,538.12,18583.21,-18583.21,1430.8000,65535.0000,24375.2000,22944.4000,0.0000,0.0000,0.0000,
351,538.63,18565.78,-18565.78,1442.4000,65535.0000,24395.4000,22953.0000,0.0000,0.0000,0.0000,
352,539.13,18548.40,-18548.40,1417.2000,65535.0000,24568.4000,23151.2000,0.0000,0.0000,0.0000,
353,539.63,18531.06,-18531.06,1420.6000,65535.0000,25048.4000,23627.8000,0.0000,0.0000,0.0000,
354,540.14,18513.76,-18513.76,1421.0000,65535.0000,24949.0000,23528.0000,0.0000,0.0000,0.0000,
355,540.64,18496.50,-18496.50,1429.2000,65535.0000,25052.2000,23623.0000,0.0000,0.0000,0.0000,
356,541.15,18479.28,-18479.28,1409.6000,65535.0000,25106.2000,23696.6000,0.0000,0.0000,0.0000,
357,541.65,18462.09,-18462.09,1434.8000,65535.0000,25249.2000,23814.4000,0.0000,0.0000,0.0000,
358,542.15,18444.95,-18444.95,1405.2000,65535.0000,25615.8000,24210.6000,0.0000,0.0000,0.0000,
359,542.66,18427.84,-18427.84,1399.6000,65535.0000,25646.0000,24246.4000,0.0000,0.0000,0.0000,
360,543.16,18410.77,-18410.77,1449.2000,65535.0000,25566.0000,24116.8000,0.0000,0.0000,0.0000,
361,543.66,18393.74,-18393.74,1428.0000,65535.0000,25686.6000,24258.6000,0.0000,0.0000,0.0000,
362,544.17,18376.75,-18376.75,1420.4000,65535.0000,25736.6000,24316.2000,0.0000,0.0000,0.0000,
363,544.67,18359.80,-18359.80,1436.8000,65535.0000,25979.8000,24543.0000,0.0000,0.0000,0.0000,
364,545.17,18342.89,-18342.89,1387.2000,65535.0000,26186.6000,24799.4000,0.0000,0.0000,0.0000,
365,545.67,18326.01,-18326.01,1399.2000,65535.0000,26159.4000,24760.2000,0.0000,0.0000,0.0000,
366,546.17,18309.17,-18309.17,1419.2000,65535.0000,26371.6000,24952.4000,0.0000,0.0000,0.0000,
367,546.68,18292.37,-18292.37,1433.4000,65535.0000,26625.0000,25191.6000,0.0000,0.0000,0.0000,
368,547.18,18275.61,-18275.61,1429.8000,65535.0000,26672.0000,25242.2000,0.0000,0.0000,0.0000,
369,547.68,18258.89,-18258.89,1436.2000,65535.0000,26857.2000,25421.0000,0.0000,0.0000,0.0000,
370,548.18,18242.20,-18242.20,1408.0000,65535.0000,27144.8000,25736.8000,0.0000,0.0000,0.0000,
371,548.68,18225.55,-18225.55,1401.8000,65535.0000,27285.6000,25883.8000,0.0000,0.0000,0.0000,
372,549.18,18208.94,-18208.94,1437.8000,65535.0000,27269.0000,25831.2000,0.0000,0.0000,0.0000,
373,549.68,18192.37,-18192.37,1425.2000,65535.0000,27421.2000,25996.0000,0.0000,0.0000,0.0000,
374,550.18,18175.83,-18175.83,1397.2000,65535.0000,27620.2000,26223.0000,0.0000,0.0000,0.0000,
375,550.68,18159.33,-18159.33,1403.8000,65535.0000,27732.2000,26328.4000,0.0000,0.0000,0.0000,
376,551.18,18142.86,-18142.86,1404.0000,65535.0000,27667.4000,26263.4000,0.0000,0.0000,0.0000,
377,551.68,18126.43,-18126.43,1434.6000,65535.0000,27855.0000,26420.4000,0.0000,0.0000,0.0000,
378,552.18,18110.04,-18110.04,1418.6000,65535.0000,28090.2000,26671.6000,0.0000,0.0000,0.0000,
379,552.68,18093.69,-18093.69,1418.0000,65535.0000,28375.0000,26957.0000,0.0000,0.0000,0.0000,
380,553.18,18077.37,-18077.37,1432.4000,65535.0000,28674.8000,27242.4000,0.0000,0.0000,0.0000,
381,553.68,18061.09,-18061.09,1418.6000,65535.0000,28762.8000,27344.2000,0.0000,0.0000,0.0000,
382,554.18,18044.84,-18044.84,1438.8000,65535.0000,28845.8000,27407.0000,0.0000,0.0000,0.0000,
383,554.67,18028.63,-18028.63,1407.4000,65535.0000,28939.8000,27532.4000,0.0000,0.0000,0.0000,
384,555.17,18012.46,-18012.46,1404.6000,65535.0000,29163.8000,27759.2000,0.0000,0.0000,0.0000,
385,555.67,17996.32,-17996.32,1432.2000,65535.0000,29418.8000,27986.6000,0.0000,0.0000,0.0000,
386,556.17,17980.22,-17980.22,1437.6000,65535.0000,29438.6000,28001.0000,0.0000,0.0000,0.0000,
387,556.66,17964.15,-17964.15,1411.2000,65535.0000,29706.0000,28294.8000,0.0000,0.0000,0.0000,
388,557.16,17948.12,-17948.12,1403.4000,65535.0000,29907.6000,28504.2000,0.0000,0.0000,0.0000,
389,557.66,17932.12,-17932.12,1414.6000,65535.0000,30090.2000,28675.6000,0.0000,0.0000,0.0000,
390,558.16,17916.16,-17916.16,1405.4000,65535.0000,30331.4000,28926.0000,0.0000,0.0000,0.0000,
391,558.65,17900.23,-17900.23,1390.2000,65535.0000,30561.6000,29171.4000,0.0000,0.0000,0.0000,
392,559.15,17884.34,-17884.34,1385.8000,65535.0000,30973.8000,29588.0000,0.0000,0.0000,0.0000,
393,559.64,17868.48,-17868.48,1409.6000,65535.0000,30945.4000,29535.8000,0.0000,0.0000,0.0000,
394,560.14,17852.66,-17852.66,1420.2000,65535.0000,31114.0000,29693.8000,0.0000,0.0000,0.0000,
395,560.64,17836.87,-17836.87,1433.8000,65535.0000,31248.2000,29814.4000,0.0000,0.0000,0.0000,
396,561.13,17821.12,-17821.12,1428.0000,65535.0000,31668.6000,30240.6000,0.0000,0.0000,0.0000,
397,561.63,17805.40,-17805.40,1412.0000,65535.0000,31917.4000,30505.4000,0.0000,0.0000,0.0000,
398,562.12,17789.72,-17789.72,1402.2000,65535.0000,32041.8000,30639.6000,0.0000,0.0000,0.0000,
399,562.62,17774.07,-17774.07,1432.6000,65535.0000,32351.4000,30918.8000,0.0000,0.0000,0.0000,
400,563.11,17758.45,-17758.45,1423.4000,65535.0000,32865.4000,31442.0000,0.0000,0.0000,0.0000,
401,563.61,17742.87,-17742.87,1397.0000,65535.0000,32904.4000,31507.4000,0.0000,0.0000,0.0000,
402,564.10,17727.32,-17727.32,1429.2000,65535.0000,33041.0000,31611.8000,0.0000,0.0000,0.0000,
403,564.60,17711.81,-17711.81,1425.2000,65535.0000,33184.2000,31759.0000,0.0000,0.0000,0.0000,
404,565.09,17696.33,-17696.33,1421.8000,65535.0000,33490.0000,32068.2000,0.0000,0.0000,0.0000,
405,565.58,17680.88,-17680.88,1407.8000,65535.0000,33734.2000,32326.4000,0.0000,0.0000,0.0000,
406,566.08,17665.47,-17665.47,1409.0000,65535.0000,33617.0000,32208.0000,0.0000,0.0000,0.0000,
407,566.57,17650.09,-17650.09,1415.8000,65535.0000,33711.4000,32295.6000,0.0000,0.0000,0.0000,
408,567.06,17634.74,-17634.74,1420.2000,65535.0000,33863.2000,32443.0000,0.0000,0.0000,0.0000,
409,567.56,17619.42,-17619.42,1421.0000,65535.0000,34115.8000,32694.8000,0.0000,0.0000,0.0000,
410,568.05,17604.14,-17604.14,1393.0000,65535.0000,34326.0000,32933.0000,0.0000,0.0000,0.0000,
411,568.54,17588.90,-17588.90,1402.8000,65535.0000,34403.6000,33000.8000,0.0000,0.0000,0.0000,
412,569.03,17573.68,-17573.68,1411.0000,65535.0000,34445.6000,33034.6000,0.0000,0.0000,0.0000,
413,569.52,17558.50,-17558.50,1402.4000,65535.0000,34654.0000,33251.6000,0.0000,0.0000,0.0000,
414,570.02,17543.35,-17543.35,1397.6000,65535.0000,35045.2000,33647.6000,0.0000,0.0000,0.0000,
415,570.51,17528.23,-17528.23,1413.2000,65535.0000,35181.4000,33768.2000,0.0000,0.0000,0.0000,
416,571.00,17513.15,-17513.15,1413.2000,65535.0000,35257.6000,33844.4000,0.0000,0.0000,0.0000,
417,571.49,17498.09,-17498.09,1425.4000,65535.0000,35093.8000,33668.4000,0.0000,0.0000,0.0000,
418,571.98,17483.07,-17483.07,1403.0000,65535.0000,35242.0000,33839.0000,0.0000,0.0000,0.0000,
419,572.47,17468.08,-17468.08,1432.6000,65535.0000,35639.2000,34206.6000,0.0000,0.0000,0.0000,
420,572.96,17453.13,-17453.13,1417.4000,65535.0000,35562.0000,34144.6000,0.0000,0.0000,0.0000,
421,573.45,17438.20,-17438.20,1421.4000,65535.0000,35526.6000,34105.2000,0.0000,0.0000,0.0000,
422,573.94,17423.31,-17423.31,1380.6000,65535.0000,35800.2000,34419.6000,0.0000,0.0000,0.0000,
423,574.43,17408.45,-17408.45,1413.4000,65535.0000,35781.6000,34368.2000,0.0000,0.0000,0.0000,
424,574.92,17393.62,-17393.62,1412.2000,65535.0000,35846.8000,34434.6000,0.0000,0.0000,0.0000,
425,575.41,17378.82,-17378.82,1402.0000,65535.0000,35948.4000,34546.4000,0.0000,0.0000,0.0000,
426,575.90,17364.06,-17364.06,1430.4000,65535.0000,36245.2000,34814.8000,0.0000,0.0000,0.0000,
427,576.39,17349.32,-17349.32,1408.8000,65535.0000,36420.6000,35011.8000,0.0000,0.0000,0.0000,
428,576.88,17334.62,-17334.62,1424.2000,65535.0000,36522.0000,35097.8000,0.0000,0.0000,0.0000,
429,577.37,17319.95,-17319.95,1439.2000,65535.0000,36302.8000,34863.6000,0.0000,0.0000,0.0000,
430,577.86,17305.31,-17305.31,1449.4000,65535.0000,36504.4000,35055.0000,0.0000,0.0000,0.0000,
431,578.35,17290.70,-17290.70,1424.6000,65535.0000,36657.2000,35232.6000,0.0000,0.0000,0.0000,
432,578.83,17276.12,-17276.12,1405.2000,65535.0000,36727.0000,35321.8000,0.0000,0.0000,0.0000,
433,579.32,17261.57,-17261.57,1414.0000,65535.0000,36651.4000,35237.4000,0.0000,0.0000,0.0000,
434,579.81,17247.05,-17247.05,1408.2000,65535.0000,36469.4000,35061.2000,0.0000,0.0000,0.0000,
435,580.30,17232.56,-17232.56,1438.2000,65535.0000,36620.8000,35182.6000,0.0000,0.0000,0.0000,
436,580.78,17218.10,-17218.10,1425.2000,65535.0000,36759.0000,35333.8000,0.0000,0.0000,0.0000,
437,581.27,17203.68,-17203.68,1409.0000,65535.0000,36991.0000,35582.0000,0.0000,0.0000,0.0000,
438,581.76,17189.28,-17189.28,1422.2000,65535.0000,37095.2000,35673.0000,0.0000,0.0000,0.0000,
439,582.24,17174.92,-17174.92,1423.8000,65535.0000,37140.6000,35716.8000,0.0000,0.0000,0.0000,
440,582.73,17160.58,-17160.58,1423.8000,65535.0000,37128.0000,35704.2000,0.0000,0.0000,0.0000,
441,583.22,17146.27,-17146.27,1438.0000,65535.0000,37172.8000,35734.8000,0.0000,0.0000,0.0000,
442,583.70,17132.00,-17132.00,1397.0000,65535.0000,37142.0000,35745.0000,0.0000,0.0000,0.0000,
443,584.19,17117.75,-17117.75,1427.8000,65535.0000,37128.2000,35700.4000,0.0000,0.0000,0.0000,
444,584.67,17103.54,-17103.54,1415.8000,65535.0000,37631.6000,36215.8000,0.0000,0.0000,0.0000,
445,585.16,17089.35,-17089.35,1424.8000,65535.0000,37688.2000,36263.4000,0.0000,0.0000,0.0000,
446,585.64,17075.19,-17075.19,1399.4000,65535.0000,37625.6000,36226.2000,0.0000,0.0000,0.0000,
447,586.13,17061.07,-17061.07,1433.4000,65535.0000,37829.2000,36395.8000,0.0000,0.0000,0.0000,
448,586.61,17046.97,-17046.97,1400.8000,65535.0000,37635.6000,36234.8000,0.0000,0.0000,0.0000,
449,587.10,17032.90,-17032.90,1442.2000,65535.0000,37539.6000,36097.4000,0.0000,0.0000,0.0000,
450,587.58,17018.86,-17018.86,1401.2000,65535.0000,37582.4000,36181.2000,0.0000,0.0000,0.0000,
451,588.07,17004.85,-17004.85,1422.4000,65535.0000,37643.4000,36221.0000,0.0000,0.0000,0.0000,
452,588.55,16990.87,-16990.87,1427.6000,65535.0000,37920.6000,36493.0000,0.0000,0.0000,0.0000,
453,589.04,16976.92,-16976.92,1430.2000,65535.0000,38140.0000,36709.8000,0.0000,0.0000,0.0000,
454,589.52,16962.99,-16962.99,1434.8000,65535.0000,38338.8000,36904.0000,0.0000,0.0000,0.0000,
455,590.00,16949.10,-16949.10,1407.0000,65535.0000,38498.4000,37091.4000,0.0000,0.0000,0.0000,
456,590.48,16935.23,-16935.23,1432.8000,65535.0000,38860.4000,37427.6000,0.0000,0.0000,0.0000,
457,590.97,16921.40,-16921.40,1430.4000,65535.0000,38690.4000,37260.0000,0.0000,0.0000,0.0000,
458,591.45,16907.59,-16907.59,1405.2000,65535.0000,38630.2000,37225.0000,0.0000,0.0000,0.0000,
459,591.93,16893.81,-16893.81,1395.2000,65535.0000,38700.8000,37305.6000,0.0000,0.0000,0.0000,
460,592.42,16880.06,-16880.06,1403.0000,65535.0000,38738.4000,37335.4000,0.0000,0.0000,0.0000,
461,592.90,16866.33,-16866.33,1432.0000,65535.0000,38875.8000,37443.8000,0.0000,0.0000,0.0000,
462,593.38,16852.64,-16852.64,1405.4000,65535.0000,38961.0000,37555.6000,0.0000,0.0000,0.0000,
463,593.86,16838.97,-16838.97,1451.6000,65535.0000,39076.2000,37624.6000,0.0000,0.0000,0.0000,
464,594.34,16825.33,-16825.33,1402.0000,65535.0000,39161.6000,37759.6000,0.0000,0.0000,0.0000,
465,594.82,16811.72,-16811.72,1392.6000,65535.0000,39147.0000,37754.4000,0.0000,0.0000,0.0000,
466,595.30,16798.14,-16798.14,1388.8000,65535.0000,39517.6000,38128.8000,0.0000,0.0000,0.0000,
467,595.78,16784.58,-16784.58,1394.8000,65535.0000,39435.2000,38040.4000,0.0000,0.0000,0.0000,
468,596.27,16771.05,-16771.05,1399.8000,65535.0000,39638.4000,38238.6000,0.0000,0.0000,0.0000,
469,596.75,16757.55,-16757.55,1405.2000,65535.0000,39784.2000,38379.0000,0.0000,0.0000,0.0000,
470,597.23,16744.08,-16744.08,1387.8000,65535.0000,39903.0000,38515.2000,0.0000,0.0000,0.0000,
471,597.71,16730.64,-16730.64,1403.0000,65535.0000,39877.8000,38474.8000,0.0000,0.0000,0.0000,
472,598.19,16717.22,-16717.22,1396.0000,65535.0000,40278.0000,38882.0000,0.0000,0.0000,0.0000,
473,598.67,16703.83,-16703.83,1416.0000,65535.0000,40150.2000,38734.2000,0.0000,0.0000,0.0000,
474,599.14,16690.47,-16690.47,1425.2000,65535.0000,40427.2000,39002.0000,0.0000,0.0000,0.0000,
475,599.62,16677.13,-16677.13,1407.8000,65535.0000,40401.0000,38993.2000,0.0000,0.0000,0.0000,
476,600.10,16663.82,-16663.82,1399.0000,65535.0000,40504.6000,39105.6000,0.0000,0.0000,0.0000,
477,600.58,16650.54,-16650.54,1421.6000,65535.0000,40673.6000,39252.0000,0.0000,0.0000,0.0000,
478,601.06,16637.29,-16637.29,1413.6000,65535.0000,40894.8000,39481.2000,0.0000,0.0000,0.0000,
479,601.54,16624.06,-16624.06,1407.4000,65535.0000,41018.4000,39611.0000,0.0000,0.0000,0.0000,
480,602.02,16610.86,-16610.86,1433.4000,65535.0000,41273.0000,39839.6000,0.0000,0.0000,0.0000,
481,602.49,16597.68,-16597.68,1431.0000,65535.0000,41508.4000,40077.4000,0.0000,0.0000,0.0000,
482,602.97,16584.54,-16584.54,1407.2000,65535.0000,41607.0000,40199.8000,0.0000,0.0000,0.0000,
483,603.45,16571.42,-16571.42,1436.8000,65535.0000,41721.8000,40285.0000,0.0000,0.0000,0.0000,
484,603.93,16558.32,-16558.32,1426.2000,65535.0000,41902.8000,40476.6000,0.0000,0.0000,0.0000,
485,604.40,16545.25,-16545.25,1411.2000,65535.0000,41674.4000,40263.2000,0.0000,0.0000,0.0000,
486,604.88,16532.21,-16532.21,1424.0000,65535.0000,41815.4000,40391.4000,0.0000,0.0000,0.0000,
487,605.36,16519.20,-16519.20,1428.0000,65535.0000,42165.2000,40737.2000,0.0000,0.0000,0.0000,
488,605.83,16506.21,-16506.21,1412.2000,65535.0000,42214.2000,40802.0000,0.0000,0.0000,0.0000,
489,606.31,16493.24,-16493.24,1415.6000,65535.0000,42320.2000,40904.6000,0.0000,0.0000,0.0000,
490,606.78,16480.31,-16480.31,1410.8000,65535.0000,42486.4000,41075.6000,0.0000,0.0000,0.0000,
491,607.26,16467.39,-16467.39,1430.8000,65535.0000,42463.8000,41033.0000,0.0000,0.0000,0.0000,
492,607.74,16454.51,-16454.51,1402.0000,65535.0000,42692.2000,41290.2000,0.0000,0.0000,0.0000,
493,608.21,16441.65,-16441.65,1425.8000,65535.0000,42571.2000,41145.4000,0.0000,0.0000,0.0000,
494,608.69,16428.82,-16428.82,1420.8000,65535.0000,42740.2000,41319.4000,0.0000,0.0000,0.0000,
495,609.16,16416.01,-16416.01,1418.2000,65535.0000,42895.6000,41477.4000,0.0000,0.0000,0.0000,
496,609.64,16403.22,-16403.22,1409.6000,65535.0000,43066.4000,41656.8000,0.0000,0.0000,0.0000,
497,610.11,16390.47,-16390.47,1421.0000,65535.0000,43344.2000,41923.2000,0.0000,0.0000,0.0000,
498,610.59,16377.73,-16377.73,1406.2000,65535.0000,43359.4000,41953.2000,0.0000,0.0000,0.0000,
499,611.06,16365.03,-16365.03,1400.2000,65535.0000,43223.0000,41822.8000,0.0000,0.0000,0.0000,
500,611.53,16352.35,-16352.35,1442.4000,65535.0000,43178.6000,41736.2000,0.0000,0.0000,0.0000,
501,612.01,16339.69,-16339.69,1439.0000,65535.0000,43461.8000,42022.8000,0.0000,0.0000,0.0000,
502,612.48,16327.06,-16327.06,1454.4000,65535.0000,43398.6000,41944.2000,0.0000,0.0000,0.0000,
503,612.95,16314.46,-16314.46,1430.6000,65535.0000,43886.8000,42456.2000,0.0000,0.0000,0.0000,
504,613.43,16301.87,-16301.87,1418.2000,65535.0000,43866.4000,42448.2000,0.0000,0.0000,0.0000,
505,613.90,16289.32,-16289.32,1419.0000,65535.0000,43896.0000,42477.0000,0.0000,0.0000,0.0000,
506,614.37,16276.79,-16276.79,1425.6000,65535.0000,44095.4000,42669.8000,0.0000,0.0000,0.0000,
507,614.84,16264.28,-16264.28,1418.6000,65535.0000,43984.8000,42566.2000,0.0000,0.0000,0.0000,
508,615.32,16251.80,-16251.80,1425.0000,65535.0000,44184.8000,42759.8000,0.0000,0.0000,0.0000,
509,615.79,16239.34,-16239.34,1411.4000,65535.0000,44381.0000,42969.6000,0.0000,0.0000,0.0000,
510,616.26,16226.91,-16226.91,1444.0000,65535.0000,44202.8000,42758.8000,0.0000,0.0000,0.0000,
511,616.73,16214.50,-16214.50,1424.4000,65535.0000,44323.2000,42898.8000,0.0000,0.0000,0.0000,
512,617.20,16202.12,-16202.12,1426.8000,65535.0000,43996.8000,42570.0000,0.0000,0.0000,0.0000,
513,617.67,16189.76,-16189.76,1433.4000,65535.0000,44136.0000,42702.6000,0.0000,0.0000,0.0000,
514,618.15,16177.43,-16177.43,1398.6000,65535.0000,44297.2000,42898.6000,0.0000,0.0000,0.0000,
515,618.62,16165.12,-16165.12,1425.0000,65535.0000,44100.4000,42675.4000,0.0000,0.0000,0.0000,
516,619.09,16152.83,-16152.83,1390.4000,65535.0000,44357.0000,42966.6000,0.0000,0.0000,0.0000,
517,619.56,16140.57,-16140.57,1413.0000,65535.0000,44623.8000,43210.8000,0.0000,0.0000,0.0000,
518,620.03,16128.33,-16128.33,1410.4000,65535.0000,44170.0000,42759.6000,0.0000,0.0000,0.0000,
519,620.50,16116.12,-16116.12,1402.4000,65535.0000,44293.6000,42891.2000,0.0000,0.0000,0.0000,
520,620.97,16103.93,-16103.93,1400.2000,65535.0000,44172.0000,42771.8000,0.0000,0.0000,0.0000,
521,621.44,16091.76,-16091.76,1410.2000,65535.0000,44123.0000,42712.8000,0.0000,0.0000,0.0000,
522,621.91,16079.62,-16079.62,1397.8000,65535.0000,44229.8000,42832.0000,0.0000,0.0000,0.0000,
523,622.37,16067.50,-16067.50,1410.4000,65535.0000,44345.6000,42935.2000,0.0000,0.0000,0.0000,
524,622.84,16055.41,-16055.41,1410.6000,65535.0000,44515.2000,43104.6000,0.0000,0.0000,0.0000,
525,623.31,16043.33,-16043.33,1397.6000,65535.0000,44601.4000,43203.8000,0.0000,0.0000,0.0000,
526,623.78,16031.29,-16031.29,1421.6000,65535.0000,44358.6000,42937.0000,0.0000,0.0000,0.0000,
527,624.25,16019.26,-16019.26,1408.6000,65535.0000,44178.4000,42769.8000,0.0000,0.0000,0.0000,
528,624.72,16007.26,-16007.26,1418.8000,65535.0000,44075.0000,42656.2000,0.0000,0.0000,0.0000,
529,625.18,15995.28,-15995.28,1437.2000,65535.0000,44331.4000,42894.2000,0.0000,0.0000,0.0000,
530,625.65,15983.33,-15983.33,1417.4000,65535.0000,44196.8000,42779.4000,0.0000,0.0000,0.0000,
531,626.12,15971.40,-15971.40,1396.0000,65535.0000,44329.2000,42933.2000,0.0000,0.0000,0.0000,
532,626.59,15959.49,-15959.49,1432.2000,65535.0000,44240.8000,42808.6000,0.0000,0.0000,0.0000,
533,627.05,15947.60,-15947.60,1415.6000,65535.0000,44135.8000,42720.2000,0.0000,0.0000,0.0000,
534,627.52,15935.74,-15935.74,1429.0000,65535.0000,44265.8000,42836.8000,0.0000,0.0000,0.0000,
535,627.99,15923.90,-15923.90,1420.6000,65535.0000,44291.8000,42871.2000,0.0000,0.0000,0.0000,
536,628.45,15912.09,-15912.09,1416.8000,65535.0000,44167.6000,42750.8000,0.0000,0.0000,0.0000,
537,628.92,15900.29,-15900.29,1405.0000,65535.0000,44389.2000,42984.2000,0.0000,0.0000,0.0000,
538,629.39,15888.52,-15888.52,1388.6000,65535.0000,44351.6000,42963.0000,0.0000,0.0000,0.0000,
539,629.85,15876.78,-15876.78,1420.0000,65535.0000,44086.4000,42666.4000,0.0000,0.0000,0.0000,
540,630.32,15865.05,-15865.05,1416.4000,65535.0000,43911.8000,42495.4000,0.0000,0.0000,0.0000,
541,630.78,15853.35,-15853.35,1418.6000,65535.0000,43973.2000,42554.6000,0.0000,0.0000,0.0000,
542,631.25,15841.67,-15841.67,1425.4000,65535.0000,43898.4000,42473.0000,0.0000,0.0000,0.0000,
543,631.71,15830.01,-15830.01,1426.8000,65535.0000,43834.6000,42407.8000,0.0000,0.0000,0.0000,
544,632.18,15818.37,-15818.37,1409.6000,65535.0000,43773.4000,42363.8000,0.0000,0.0000,0.0000,
545,632.64,15806.76,-15806.76,1401.0000,65535.0000,43658.8000,42257.8000,0.0000,0.0000,0.0000,
546,633.10,15795.17,-15795.17,1414.0000,65535.0000,43663.4000,42249.4000,0.0000,0.0000,0.0000,
547,633.57,15783.60,-15783.60,1415.8000,65535.0000,43453.4000,42037.6000,0.0000,0.0000,0.0000,
548,634.03,15772.06,-15772.06,1412.2000,65535.0000,43288.6000,41876.4000,0.0000,0.0000,0.0000,
549,634.50,15760.53,-15760.53,1415.6000,65535.0000,43801.4000,42385.8000,0.0000,0.0000,0.0000,
550,634.96,15749.03,-15749.03,1418.0000,65535.0000,43501.0000,42083.0000,0.0000,0.0000,0.0000,
551,635.42,15737.55,-15737.55,1411.8000,65535.0000,43312.2000,41900.4000,0.0000,0.0000,0.0000,
552,635.89,15726.09,-15726.09,1423.4000,65535.0000,43267.8000,41844.4000,0.0000,0.0000,0.0000,
553,636.35,15714.65,-15714.65,1436.0000,65535.0000,43298.4000,41862.4000,0.0000,0.0000,0.0000,
554,636.81,15703.24,-15703.24,1420.2000,65535.0000,43549.6000,42129.4000,0.0000,0.0000,0.0000,
555,637.27,15691.85,-15691.85,1414.0000,65535.0000,43668.6000,42254.6000,0.0000,0.0000,0.0000,
556,637.74,15680.47,-15680.47,1424.6000,65535.0000,43551.6000,42127.0000,0.0000,0.0000,0.0000,
557,638.20,15669.12,-15669.12,1402.4000,65535.0000,43717.8000,42315.4000,0.0000,0.0000,0.0000,
558,638.66,15657.80,-15657.80,1416.8000,65535.0000,43708.2000,42291.4000,0.0000,0.0000,0.0000,
559,639.12,15646.49,-15646.49,1408.8000,65535.0000,43584.8000,42176.0000,0.0000,0.0000,0.0000,
560,639.58,15635.20,-15635.20,1404.8000,65535.0000,43205.2000,41800.4000,0.0000,0.0000,0.0000,
561,640.04,15623.94,-15623.94,1393.4000,65535.0000,43437.8000,42044.4000,0.0000,0.0000,0.0000,
562,640.50,15612.70,-15612.70,1418.0000,65535.0000,43528.6000,42110.6000,0.0000,0.0000,0.0000,
563,640.97,15601.48,-15601.48,1417.0000,65535.0000,43332.4000,41915.4000,0.0000,0.0000,0.0000,
564,641.43,15590.28,-15590.28,1417.2000,65535.0000,43094.2000,41677.0000,0.0000,0.0000,0.0000,
565,641.89,15579.10,-15579.10,1431.8000,65535.0000,43205.4000,41773.6000,0.0000,0.0000,0.0000,
566,642.35,15567.94,-15567.94,1407.2000,65535.0000,43266.0000,41858.8000,0.0000,0.0000,0.0000,
567,642.81,15556.80,-15556.80,1412.2000,65535.0000,43156.0000,41743.8000,0.0000,0.0000,0.0000,
568,643.27,15545.69,-15545.69,1397.6000,65535.0000,43423.8000,42026.2000,0.0000,0.0000,0.0000,
569,643.72,15534.59,-15534.59,1411.2000,65535.0000,43450.2000,42039.0000,0.0000,0.0000,0.0000,
570,644.18,15523.52,-15523.52,1424.0000,65535.0000,43561.8000,42137.8000,0.0000,0.0000,0.0000,
571,644.64,15512.46,-15512.46,1390.2000,65535.0000,43062.6000,41672.4000,0.0000,0.0000,0.0000,
572,645.10,15501.43,-15501.43,1407.0000,65535.0000,43241.8000,41834.8000,0.0000,0.0000,0.0000,
573,645.56,15490.42,-15490.42,1409.2000,65535.0000,43314.0000,41904.8000,0.0000,0.0000,0.0000,
574,646.02,15479.43,-15479.43,1379.6000,65535.0000,43209.4000,41829.8000,0.0000,0.0000,0.0000,
575,646.48,15468.46,-15468.46,1405.6000,65535.0000,43187.6000,41782.0000,0.0000,0.0000,0.0000,
576,646.93,15457.51,-15457.51,1392.4000,65535.0000,43410.4000,42018.0000,0.0000,0.0000,0.0000,
577,647.39,15446.58,-15446.58,1377.0000,65535.0000,43650.4000,42273.4000,0.0000,0.0000,0.0000,
578,647.85,15435.67,-15435.67,1404.0000,65535.0000,43279.8000,41875.8000,0.0000,0.0000,0.0000,
579,648.31,15424.78,-15424.78,1436.6000,65535.0000,43282.2000,41845.6000,0.0000,0.0000,0.0000,
580,648.76,15413.91,-15413.91,1431.2000,65535.0000,43431.0000,41999.8000,0.0000,0.0000,0.0000,
581,649.22,15403.07,-15403.07,1429.2000,65535.0000,43309.6000,41880.4000,0.0000,0.0000,0.0000,
582,649.68,15392.24,-15392.24,1398.0000,65535.0000,43488.6000,42090.6000,0.0000,0.0000,0.0000,
583,650.13,15381.43,-15381.43,1397.2000,65535.0000,43805.2000,42408.0000,0.0000,0.0000,0.0000,
584,650.59,15370.64,-15370.64,1397.8000,65535.0000,43543.8000,42146.0000,0.0000,0.0000,0.0000,
585,651.05,15359.88,-15359.88,1408.4000,65535.0000,43393.6000,41985.2000,0.0000,0.0000,0.0000,
586,651.50,15349.13,-15349.13,1384.8000,65535.0000,43374.0000,41989.2000,0.0000,0.0000,0.0000,
587,651.96,15338.40,-15338.40,1389.2000,65535.0000,43534.8000,42145.6000,0.0000,0.0000,0.0000,
588,652.41,15327.69,-15327.69,1420.2000,65535.0000,43704.0000,42283.8000,0.0000,0.0000,0.0000,
589,652.87,15317.01,-15317.01,1437.2000,65535.0000,43578.6000,42141.4000,0.0000,0.0000,0.0000,
590,653.32,15306.34,-15306.34,1428.2000,65535.0000,43880.2000,42452.0000,0.0000,0.0000,0.0000,
591,653.78,15295.69,-15295.69,1391.8000,65535.0000,43726.4000,42334.6000,0.0000,0.0000,0.0000,
592,654.23,15285.06,-15285.06,1416.4000,65535.0000,43868.8000,42452.4000,0.0000,0.0000,0.0000,
593,654.69,15274.45,-15274.45,1396.2000,65535.0000,43908.2000,42512.0000,0.0000,0.0000,0.0000,
594,655.14,15263.86,-15263.86,1403.0000,65535.0000,43593.0000,42190.0000,0.0000,0.0000,0.0000,
595,655.60,15253.29,-15253.29,1426.2000,65535.0000,43666.6000,42240.4000,0.0000,0.0000,0.0000,
596,656.05,15242.74,-15242.74,1422.4000,65535.0000,43761.4000,42339.0000,0.0000,0.0000,0.0000,
597,656.50,15232.21,-15232.21,1405.0000,65535.0000,43868.6000,42463.6000,0.0000,0.0000,0.0000,
598,656.96,15221.70,-15221.70,1429.0000,65535.0000,43819.8000,42390.8000,0.0000,0.0000,0.0000,
599,657.41,15211.21,-15211.21,1393.2000,65535.0000,43997.0000,42603.8000,0.0000,0.0000,0.0000,
600,657.86,15200.74,-15200.74,1360.4000,65535.0000,43850.8000,42490.4000,0.0000,0.0000,0.0000,
601,658.32,15190.29,-15190.29,1423.8000,65535.0000,44017.6000,42593.8000,0.0000,0.0000,0.0000,
602,658.77,15179.85,-15179.85,1403.8000,65535.0000,43839.2000,42435.4000,0.0000,0.0000,0.0000,
603,659.22,15169.44,-15169.44,1405.2000,65535.0000,43688.4000,42283.2000,0.0000,0.0000,0.0000,
604,659.67,15159.04,-15159.04,1420.2000,65535.0000,43928.8000,42508.6000,0.0000,0.0000,0.0000,
605,660.12,15148.66,-15148.66,1407.8000,65535.0000,43768.2000,42360.4000,0.0000,0.0000,0.0000,
606,660.58,15138.31,-15138.31,1386.2000,65535.0000,43946.4000,42560.2000,0.0000,0.0000,0.0000,
607,661.03,15127.97,-15127.97,1404.6000,65535.0000,44191.8000,42787.2000,0.0000,0.0000,0.0000,
608,661.48,15117.65,-15117.65,1435.6000,65535.0000,44178.2000,42742.6000,0.0000,0.0000,0.0000,
609,661.93,15107.35,-15107.35,1396.0000,65535.0000,43932.6000,42536.6000,0.0000,0.0000,0.0000,
610,662.38,15097.07,-15097.07,1421.2000,65535.0000,44123.4000,42702.2000,0.0000,0.0000,0.0000,
611,662.83,15086.80,-15086.80,1401.6000,65535.0000,44499.2000,43097.6000,0.0000,0.0000,0.0000,
612,663.28,15076.56,-15076.56,1395.4000,65535.0000,44422.2000,43026.8000,0.0000,0.0000,0.0000,
613,663.73,15066.33,-15066.33,1392.4000,65535.0000,44320.8000,42928.4000,0.0000,0.0000,0.0000,
614,664.18,15056.12,-15056.12,1414.8000,65535.0000,44607.6000,43192.8000,0.0000,0.0000,0.0000,
615,664.63,15045.93,-15045.93,1428.8000,65535.0000,44713.0000,43284.2000,0.0000,0.0000,0.0000,
616,665.08,15035.76,-15035.76,1401.6000,65535.0000,44294.8000,42893.2000,0.0000,0.0000,0.0000,
617,665.53,15025.61,-15025.61,1408.2000,65535.0000,44623.4000,43215.2000,0.0000,0.0000,0.0000,
618,665.98,15015.48,-15015.48,1422.8000,65535.0000,44465.2000,43042.4000,0.0000,0.0000,0.0000,
619,666.43,15005.36,-15005.36,1398.8000,65535.0000,44804.2000,43405.4000,0.0000,0.0000,0.0000,
620,666.88,14995.27,-14995.27,1419.8000,65535.0000,44663.8000,43244.0000,0.0000,0.0000,0.0000,
621,667.33,14985.19,-14985.19,1402.4000,65535.0000,44724.0000,43321.6000,0.0000,0.0000,0.0000,
622,667.77,14975.13,-14975.13,1400.4000,65535.0000,44932.2000,43531.8000,0.0000,0.0000,0.0000,
623,668.22,14965.09,-14965.09,1416.0000,65535.0000,44649.2000,43233.2000,0.0000,0.0000,0.0000,
624,668.67,14955.06,-14955.06,1423.0000,65535.0000,44372.0000,42949.0000,0.0000,0.0000,0.0000,
625,669.12,14945.06,-14945.06,1431.6000,65535.0000,44252.6000,42821.0000,0.0000,0.0000,0.0000,
626,669.56,14935.07,-14935.07,1413.2000,65535.0000,44228.0000,42814.8000,0.0000,0.0000,0.0000,
627,670.01,14925.10,-14925.10,1412.0000,65535.0000,44377.0000,42965.0000,0.0000,0.0000,0.0000,
628,670.46,14915.15,-14915.15,1413.0000,65535.0000,44481.4000,43068.4000,0.0000,0.0000,0.0000,
629,670.91,14905.22,-14905.22,1418.8000,65535.0000,44754.0000,43335.2000,0.0000,0.0000,0.0000,
630,671.35,14895.30,-14895.30,1405.2000,65535.0000,44465.4000,43060.2000,0.0000,0.0000,0.0000,
631,671.80,14885.40,-14885.40,1429.4000,65535.0000,44525.4000,43096.0000,0.0000,0.0000,0.0000,
632,672.25,14875.52,-14875.52,1417.8000,65535.0000,44286.6000,42868.8000,0.0000,0.0000,0.0000,
633,672.69,14865.66,-14865.66,1416.6000,65535.0000,44350.8000,42934.2000,0.0000,0.0000,0.0000,
634,673.14,14855.82,-14855.82,1408.2000,65535.0000,44574.2000,43166.0000,0.0000,0.0000,0.0000,
635,673.58,14845.99,-14845.99,1397.6000,65535.0000,44578.6000,43181.0000,0.0000,0.0000,0.0000,
636,674.03,14836.18,-14836.18,1416.2000,65535.0000,44246.6000,42830.4000,0.0000,0.0000,0.0000,
637,674.47,14826.39,-14826.39,1410.4000,65535.0000,44160.4000,42750.0000,0.0000,0.0000,0.0000,
638,674.92,14816.61,-14816.61,1412.0000,65535.0000,44224.2000,42812.2000,0.0000,0.0000,0.0000,
639,675.36,14806.86,-14806.86,1441.2000,65535.0000,44096.2000,42655.0000,0.0000,0.0000,0.0000,
640,675.81,14797.12,-14797.12,1419.0000,65535.0000,43832.0000,42413.0000,0.0000,0.0000,0.0000,
641,676.25,14787.40,-14787.40,1402.0000,65535.0000,43655.6000,42253.6000,0.0000,0.0000,0.0000,
642,676.70,14777.69,-14777.69,1405.8000,65535.0000,43888.6000,42482.8000,0.0000,0.0000,0.0000,
643,677.14,14768.01,-14768.01,1431.4000,65535.0000,44059.6000,42628.2000,0.0000,0.0000,0.0000,
644,677.58,14758.34,-14758.34,1417.0000,65535.0000,43824.2000,42407.2000,0.0000,0.0000,0.0000,
645,678.03,14748.68,-14748.68,1403.0000,65535.0000,43782.2000,42379.2000,0.0000,0.0000,0.0000,
646,678.47,14739.05,-14739.05,1424.2000,65535.0000,43949.8000,42525.6000,0.0000,0.0000,0.0000,
647,678.91,14729.43,-14729.43,1420.6000,65535.0000,43760.0000,42339.4000,0.0000,0.0000,0.0000,
648,679.36,14719.83,-14719.83,1411.6000,65535.0000,44010.2000,42598.6000,0.0000,0.0000,0.0000,
649,679.80,14710.24,-14710.24,1417.8000,65535.0000,44155.4000,42737.6000,0.0000,0.0000,0.0000,
650,680.24,14700.68,-14700.68,1412.2000,65535.0000,44126.2000,42714.0000,0.0000,0.0000,0.0000,
651,680.68,14691.13,-14691.13,1425.4000,65535.0000,44185.6000,42760.2000,0.0000,0.0000,0.0000,
652,681.12,14681.59,-14681.59,1405.8000,65535.0000,43932.6000,42526.8000,0.0000,0.0000,0.0000,
653,681.57,14672.08,-14672.08,1401.2000,65535.0000,43537.0000,42135.8000,0.0000,0.0000,0.0000,
654,682.01,14662.58,-14662.58,1428.8000,65535.0000,43926.8000,42498.0000,0.0000,0.0000,0.0000,
655,682.45,14653.09,-14653.09,1407.6000,65535.0000,43488.4000,42080.8000,0.0000,0.0000,0.0000,
656,682.89,14643.63,-14643.63,1409.8000,65535.0000,43199.0000,41789.2000,0.0000,0.0000,0.0000,
657,683.33,14634.18,-14634.18,1421.2000,65535.0000,43112.8000,41691.6000,0.0000,0.0000,0.0000,
658,683.77,14624.75,-14624.75,1401.0000,65535.0000,42935.2000,41534.2000,0.0000,0.0000,0.0000,
659,684.21,14615.33,-14615.33,1395.8000,65535.0000,42677.0000,41281.2000,0.0000,0.0000,0.0000,
660,684.65,14605.93,-14605.93,1402.2000,65535.0000,42314.8000,40912.6000,0.0000,0.0000,0.0000,
661,685.09,14596.55,-14596.55,1391.8000,65535.0000,42539.4000,41147.6000,0.0000,0.0000,0.0000,
662,685.53,14587.18,-14587.18,1390.8000,65535.0000,42663.8000,41273.0000,0.0000,0.0000,0.0000,
663,685.97,14577.83,-14577.83,1389.2000,65535.0000,42540.6000,41151.4000,0.0000,0.0000,0.0000,
664,686.41,14568.50,-14568.50,1401.8000,65535.0000,42390.8000,40989.0000,0.0000,0.0000,0.0000,
665,686.85,14559.18,-14559.18,1421.2000,65535.0000,42214.8000,40793.6000,0.0000,0.0000,0.0000,
666,687.29,14549.88,-14549.88,1402.4000,65535.0000,41863.4000,40461.0000,0.0000,0.0000,0.0000,
667,687.73,14540.60,-14540.60,1415.8000,65535.0000,41817.0000,40401.2000,0.0000,0.0000,0.0000,
668,688.17,14531.33,-14531.33,1428.0000,65535.0000,42036.0000,40608.0000,0.0000,0.0000,0.0000,
669,688.61,14522.08,-14522.08,1410.4000,65535.0000,41694.8000,40284.4000,0.0000,0.0000,0.0000,
670,689.04,14512.84,-14512.84,1406.8000,65535.0000,41245.4000,39838.6000,0.0000,0.0000,0.0000,
671,689.48,14503.63,-14503.63,1397.0000,65535.0000,41056.4000,39659.4000,0.0000,0.0000,0.0000,
672,689.92,14494.42,-14494.42,1409.8000,65535.0000,41168.6000,39758.8000,0.0000,0.0000,0.0000,
673,690.36,14485.24,-14485.24,1400.2000,65535.0000,41135.2000,39735.0000,0.0000,0.0000,0.0000,
674,690.80,14476.06,-14476.06,1433.0000,65535.0000,41364.4000,39931.4000,0.0000,0.0000,0.0000,
675,691.23,14466.91,-14466.91,1430.6000,65535.0000,41346.2000,39915.6000,0.0000,0.0000,0.0000,
676,691.67,14457.77,-14457.77,1397.6000,65535.0000,41028.8000,39631.2000,0.0000,0.0000,0.0000,
677,692.11,14448.65,-14448.65,1427.4000,65535.0000,40787.4000,39360.0000,0.0000,0.0000,0.0000,
678,692.54,14439.54,-14439.54,1411.8000,65535.0000,40834.0000,39422.2000,0.0000,0.0000,0.0000,
679,692.98,14430.45,-14430.45,1431.8000,65535.0000,40805.4000,39373.6000,0.0000,0.0000,0.0000,
680,693.42,14421.37,-14421.37,1413.8000,65535.0000,40535.4000,39121.6000,0.0000,0.0000,0.0000,
681,693.85,14412.31,-14412.31,1391.6000,65535.0000,40395.0000,39003.4000,0.0000,0.0000,0.0000,
682,694.29,14403.27,-14403.27,1413.6000,65535.0000,40746.8000,39333.2000,0.0000,0.0000,0.0000,
683,694.72,14394.24,-14394.24,1409.6000,65535.0000,40513.0000,39103.4000,0.0000,0.0000,0.0000,
684,695.16,14385.23,-14385.23,1414.2000,65535.0000,40056.8000,38642.6000,0.0000,0.0000,0.0000,
685,695.59,14376.23,-14376.23,1395.6000,65535.0000,40049.4000,38653.8000,0.0000,0.0000,0.0000,
686,696.03,14367.25,-14367.25,1401.6000,65535.0000,39653.4000,38251.8000,0.0000,0.0000,0.0000,
687,696.46,14358.29,-14358.29,1422.2000,65535.0000,39618.4000,38196.2000,0.0000,0.0000,0.0000,
688,696.90,14349.34,-14349.34,1419.2000,65535.0000,39387.4000,37968.2000,0.0000,0.0000,0.0000,
689,697.33,14340.40,-14340.40,1408.8000,65535.0000,39746.8000,38338.0000,0.0000,0.0000,0.0000,
690,697.76,14331.48,-14331.48,1417.4000,65535.0000,39665.4000,38248.0000,0.0000,0.0000,0.0000,
691,698.20,14322.58,-14322.58,1395.6000,65535.0000,39717.4000,38321.8000,0.0000,0.0000,0.0000,
692,698.63,14313.69,-14313.69,1416.6000,65535.0000,39395.2000,37978.6000,0.0000,0.0000,0.0000,
693,699.07,14304.82,-14304.82,1398.2000,65535.0000,39285.4000,37887.2000,0.0000,0.0000,0.0000,
694,699.50,14295.96,-14295.96,1412.6000,65535.0000,39448.8000,38036.2000,0.0000,0.0000,0.0000,
695,699.93,14287.12,-14287.12,1407.8000,65535.0000,39065.4000,37657.6000,0.0000,0.0000,0.0000,
696,700.36,14278.29,-14278.29,1407.4000,65535.0000,38526.2000,37118.8000,0.0000,0.0000,0.0000,
697,700.80,14269.48,-14269.48,1403.0000,65535.0000,38790.2000,37387.2000,0.0000,0.0000,0.0000,
698,701.23,14260.68,-14260.68,1411.0000,65535.0000,38672.8000,37261.8000,0.0000,0.0000,0.0000,
699,701.66,14251.90,-14251.90,1423.4000,65535.0000,38803.2000,37379.8000,0.0000,0.0000,0.0000,
700,702.09,14243.13,-14243.13,1399.8000,65535.0000,38556.8000,37157.0000,0.0000,0.0000,0.0000,
701,702.52,14234.38,-14234.38,1421.2000,65535.0000,38484.2000,37063.0000,0.0000,0.0000,0.0000,
702,702.96,14225.64,-14225.64,1411.8000,65535.0000,38569.6000,37157.8000,0.0000,0.0000,0.0000,
703,703.39,14216.92,-14216.92,1397.8000,65535.0000,38689.4000,37291.6000,0.0000,0.0000,0.0000,
704,703.82,14208.21,-14208.21,1429.2000,65535.0000,38361.4000,36932.2000,0.0000,0.0000,0.0000,
705,704.25,14199.52,-14199.52,1425.2000,65535.0000,37865.6000,36440.4000,0.0000,0.0000,0.0000,
706,704.68,14190.84,-14190.84,1414.0000,65535.0000,37769.4000,36355.4000,0.0000,0.0000,0.0000,
707,705.11,14182.18,-14182.18,1410.6000,65535.0000,37630.6000,36220.0000,0.0000,0.0000,0.0000,
708,705.54,14173.53,-14173.53,1415.8000,65535.0000,38287.6000,36871.8000,0.0000,0.0000,0.0000,
709,705.97,14164.90,-14164.90,1399.2000,65535.0000,37851.4000,36452.2000,0.0000,0.0000,0.0000,
710,706.40,14156.28,-14156.28,1437.4000,65535.0000,37742.8000,36305.4000,0.0000,0.0000,0.0000,
711,706.83,14147.68,-14147.68,1427.4000,65535.0000,37489.6000,36062.2000,0.0000,0.0000,0.0000,
712,707.26,14139.09,-14139.09,1397.8000,65535.0000,37548.8000,36151.0000,0.0000,0.0000,0.0000,
713,707.69,14130.52,-14130.52,1388.0000,65535.0000,37369.8000,35981.8000,0.0000,0.0000,0.0000,
714,708.12,14121.96,-14121.96,1431.4000,65535.0000,37105.4000,35674.0000,0.0000,0.0000,0.0000,
715,708.55,14113.42,-14113.42,1415.0000,65535.0000,37403.2000,35988.2000,0.0000,0.0000,0.0000,
716,708.97,14104.88,-14104.88,1407.6000,65535.0000,37368.0000,35960.4000,0.0000,0.0000,0.0000,
717,709.40,14096.37,-14096.37,1422.8000,65535.0000,37303.8000,35881.0000,0.0000,0.0000,0.0000,
718,709.83,14087.87,-14087.87,1428.0000,65535.0000,37620.2000,36192.2000,0.0000,0.0000,0.0000,
719,710.26,14079.38,-14079.38,1399.0000,65535.0000,37665.2000,36266.2000,0.0000,0.0000,0.0000,
720,710.69,14070.91,-14070.91,1398.6000,65535.0000,37454.4000,36055.8000,0.0000,0.0000,0.0000,
721,711.11,14062.45,-14062.45,1404.0000,65535.0000,36958.8000,35554.8000,0.0000,0.0000,0.0000,
722,711.54,14054.01,-14054.01,1422.8000,65535.0000,37026.0000,35603.2000,0.0000,0.0000,0.0000,
723,711.97,14045.58,-14045.58,1418.2000,65535.0000,36914.6000,35496.4000,0.0000,0.0000,0.0000,
724,712.39,14037.16,-14037.16,1416.6000,65535.0000,37013.0000,35596.4000,0.0000,0.0000,0.0000,
725,712.82,14028.76,-14028.76,1384.6000,65535.0000,36746.8000,35362.2000,0.0000,0.0000,0.0000,
726,713.25,14020.38,-14020.38,1435.4000,65535.0000,36896.2000,35460.8000,0.0000,0.0000,0.0000,
727,713.67,14012.00,-14012.00,1419.6000,65535.0000,36725.4000,35305.8000,0.0000,0.0000,0.0000,
728,714.10,14003.64,-14003.64,1435.2000,65535.0000,36655.6000,35220.4000,0.0000,0.0000,0.0000,
729,714.53,13995.30,-13995.30,1376.2000,65535.0000,36852.6000,35476.4000,0.0000,0.0000,0.0000,
730,714.95,13986.97,-13986.97,1419.6000,65535.0000,36617.6000,35198.0000,0.0000,0.0000,0.0000,
731,715.38,13978.65,-13978.65,1430.2000,65535.0000,36428.8000,34998.6000,0.0000,0.0000,0.0000,
732,715.80,13970.35,-13970.35,1425.8000,65535.0000,35944.2000,34518.4000,0.0000,0.0000,0.0000,
733,716.23,13962.06,-13962.06,1431.4000,65535.0000,36210.4000,34779.0000,0.0000,0.0000,0.0000,
734,716.65,13953.79,-13953.79,1426.4000,65535.0000,36354.6000,34928.2000,0.0000,0.0000,0.0000,
735,717.08,13945.53,-13945.53,1424.4000,65535.0000,36359.8000,34935.4000,0.0000,0.0000,0.0000,
736,717.50,13937.28,-13937.28,1418.0000,65535.0000,36310.0000,34892.0000,0.0000,0.0000,0.0000,
737,717.92,13929.05,-13929.05,1433.0000,65535.0000,36550.2000,35117.2000,0.0000,0.0000,0.0000,
738,718.35,13920.83,-13920.83,1390.4000,65535.0000,36355.4000,34965.0000,0.0000,0.0000,0.0000,
739,718.77,13912.63,-13912.63,1413.4000,65535.0000,36232.4000,34819.0000,0.0000,0.0000,0.0000,
740,719.20,13904.43,-13904.43,1432.2000,65535.0000,35800.2000,34368.0000,0.0000,0.0000,0.0000,
741,719.62,13896.26,-13896.26,1414.0000,65535.0000,36027.4000,34613.4000,0.0000,0.0000,0.0000,
742,720.04,13888.09,-13888.09,1411.6000,65535.0000,35803.2000,34391.6000,0.0000,0.0000,0.0000,
743,720.46,13879.94,-13879.94,1385.4000,65535.0000,35629.2000,34243.8000,0.0000,0.0000,0.0000,
744,720.89,13871.81,-13871.81,1395.6000,65535.0000,35738.8000,34343.2000,0.0000,0.0000,0.0000,
745,721.31,13863.68,-13863.68,1421.8000,65535.0000,35762.2000,34340.4000,0.0000,0.0000,0.0000,
746,721.73,13855.57,-13855.57,1422.2000,65535.0000,35765.2000,34343.0000,0.0000,0.0000,0.0000,
747,722.15,13847.48,-13847.48,1420.4000,65535.0000,35861.4000,34441.0000,0.0000,0.0000,0.0000,
748,722.57,13839.39,-13839.39,1411.4000,65535.0000,35953.4000,34542.0000,0.0000,0.0000,0.0000,
749,723.00,13831.33,-13831.33,1440.2000,65535.0000,35773.6000,34333.4000,0.0000,0.0000,0.0000,
750,723.42,13823.27,-13823.27,1440.0000,65535.0000,35846.8000,34406.8000,0.0000,0.0000,0.0000,
751,723.84,13815.23,-13815.23,1405.8000,65535.0000,35684.8000,34279.0000,0.0000,0.0000,0.0000,
752,724.26,13807.20,-13807.20,1399.2000,65535.0000,35868.2000,34469.0000,0.0000,0.0000,0.0000,
753,724.68,13799.18,-13799.18,1415.4000,65535.0000,35934.2000,34518.8000,0.0000,0.0000,0.0000,
754,725.10,13791.18,-13791.18,1414.8000,65535.0000,35688.0000,34273.2000,0.0000,0.0000,0.0000,
755,725.52,13783.19,-13783.19,1430.2000,65535.0000,35738.8000,34308.6000,0.0000,0.0000,0.0000,
756,725.94,13775.22,-13775.22,1399.6000,65535.0000,35447.6000,34048.0000,0.0000,0.0000,0.0000,
757,726.36,13767.26,-13767.26,1415.6000,65535.0000,35291.2000,33875.6000,0.0000,0.0000,0.0000,
758,726.78,13759.31,-13759.31,1399.2000,65535.0000,35238.8000,33839.6000,0.0000,0.0000,0.0000,
759,727.20,13751.37,-13751.37,1430.4000,65535.0000,35236.2000,33805.8000,0.0000,0.0000,0.0000,
760,727.62,13743.45,-13743.45,1409.6000,65535.0000,35516.2000,34106.6000,0.0000,0.0000,0.0000,
761,728.04,13735.54,-13735.54,1426.2000,65535.0000,35436.0000,34009.8000,0.0000,0.0000,0.0000,
762,728.46,13727.64,-13727.64,1435.6000,65535.0000,35346.2000,33910.6000,0.0000,0.0000,0.0000,
763,728.88,13719.76,-13719.76,1428.8000,65535.0000,35478.6000,34049.8000,0.0000,0.0000,0.0000,
764,729.29,13711.89,-13711.89,1420.0000,65535.0000,35649.4000,34229.4000,0.0000,0.0000,0.0000,
765,729.71,13704.03,-13704.03,1420.0000,65535.0000,35176.0000,33756.0000,0.0000,0.0000,0.0000,
766,730.13,13696.19,-13696.19,1411.4000,65535.0000,35103.6000,33692.2000,0.0000,0.0000,0.0000,
767,730.55,13688.35,-13688.35,1412.0000,65535.0000,35130.2000,33718.2000,0.0000,0.0000,0.0000,
768,730.97,13680.53,-13680.53,1390.2000,65535.0000,35059.8000,33669.6000,0.0000,0.0000,0.0000,
769,731.38,13672.73,-13672.73,1415.8000,65535.0000,34796.2000,33380.4000,0.0000,0.0000,0.0000,
770,731.80,13664.94,-13664.94,1410.2000,65535.0000,34774.0000,33363.8000,0.0000,0.0000,0.0000,
771,732.22,13657.16,-13657.16,1411.6000,65535.0000,34841.2000,33429.6000,0.0000,0.0000,0.0000,
772,732.63,13649.39,-13649.39,1420.8000,65535.0000,34997.4000,33576.6000,0.0000,0.0000,0.0000,
773,733.05,13641.63,-13641.63,1404.6000,65535.0000,34918.2000,33513.6000,0.0000,0.0000,0.0000,
774,733.47,13633.89,-13633.89,1403.4000,65535.0000,34966.8000,33563.4000,0.0000,0.0000,0.0000,
775,733.88,13626.16,-13626.16,1414.0000,65535.0000,34954.2000,33540.2000,0.0000,0.0000,0.0000,
776,734.30,13618.45,-13618.45,1432.4000,65535.0000,35001.6000,33569.2000,0.0000,0.0000,0.0000,
777,734.71,13610.74,-13610.74,1378.8000,65535.0000,34624.0000,33245.2000,0.0000,0.0000,0.0000,
778,735.13,13603.05,-13603.05,1394.6000,65535.0000,34608.4000,33213.8000,0.0000,0.0000,0.0000,
779,735.54,13595.37,-13595.37,1415.4000,65535.0000,34587.4000,33172.0000,0.0000,0.0000,0.0000,
780,735.96,13587.71,-13587.71,1419.0000,65535.0000,34583.4000,33164.4000,0.0000,0.0000,0.0000,
781,736.37,13580.05,-13580.05,1397.2000,65535.0000,34571.0000,33173.8000,0.0000,0.0000,0.0000,
782,736.79,13572.41,-13572.41,1403.6000,65535.0000,34374.2000,32970.6000,0.0000,0.0000,0.0000,
783,737.20,13564.78,-13564.78,1383.2000,65535.0000,34282.8000,32899.6000,0.0000,0.0000,0.0000,
784,737.62,13557.17,-13557.17,1418.6000,65535.0000,34301.2000,32882.6000,0.0000,0.0000,0.0000,
785,738.03,13549.56,-13549.56,1421.2000,65535.0000,34077.0000,32655.8000,0.0000,0.0000,0.0000,
786,738.44,13541.97,-13541.97,1398.4000,65535.0000,34157.4000,32759.0000,0.0000,0.0000,0.0000,
787,738.86,13534.39,-13534.39,1432.0000,65535.0000,34377.8000,32945.8000,0.0000,0.0000,0.0000,
788,739.27,13526.83,-13526.83,1405.0000,65535.0000,34014.6000,32609.6000,0.0000,0.0000,0.0000,
789,739.68,13519.27,-13519.27,1380.2000,65535.0000,34207.2000,32827.0000,0.0000,0.0000,0.0000,
790,740.10,13511.73,-13511.73,1395.6000,65535.0000,34263.4000,32867.8000,0.0000,0.0000,0.0000,
791,740.51,13504.20,-13504.20,1415.0000,65535.0000,34162.8000,32747.8000,0.0000,0.0000,0.0000,
792,740.92,13496.69,-13496.69,1418.4000,65535.0000,34082.8000,32664.4000,0.0000,0.0000,0.0000,
793,741.33,13489.18,-13489.18,1416.6000,65535.0000,34101.2000,32684.6000,0.0000,0.0000,0.0000,
794,741.75,13481.69,-13481.69,1396.2000,65535.0000,33670.4000,32274.2000,0.0000,0.0000,0.0000,
795,742.16,13474.21,-13474.21,1400.8000,65535.0000,33447.0000,32046.2000,0.0000,0.0000,0.0000,
796,742.57,13466.74,-13466.74,1401.8000,65535.0000,33299.6000,31897.8000,0.0000,0.0000,0.0000,
797,742.98,13459.28,-13459.28,1396.8000,65535.0000,33509.6000,32112.8000,0.0000,0.0000,0.0000,
798,743.39,13451.84,-13451.84,1381.8000,65535.0000,33526.6000,32144.8000,0.0000,0.0000,0.0000,
799,743.80,13444.40,-13444.40,1403.2000,65535.0000,33551.2000,32148.0000,0.0000,0.0000,0.0000,
800,744.21,13436.98,-13436.98,1411.0000,65535.0000,33482.4000,32071.4000,0.0000,0.0000,0.0000,
801,744.63,13429.58,-13429.58,1395.8000,65535.0000,33571.8000,32176.0000,0.0000,0.0000,0.0000,
802,745.04,13422.18,-13422.18,1420.4000,65535.0000,33449.8000,32029.4000,0.0000,0.0000,0.0000,
803,745.45,13414.79,-13414.79,1425.8000,65535.0000,33647.2000,32221.4000,0.0000,0.0000,0.0000,
804,745.86,13407.42,-13407.42,1409.8000,65535.0000,33426.0000,32016.2000,0.0000,0.0000,0.0000,
805,746.27,13400.06,-13400.06,1395.0000,65535.0000,33237.6000,31842.6000,0.0000,0.0000,0.0000,
806,746.67,13392.71,-13392.71,1385.0000,65535.0000,33049.6000,31664.6000,0.0000,0.0000,0.0000,
807,747.08,13385.38,-13385.38,1399.2000,65535.0000,33108.8000,31709.6000,0.0000,0.0000,0.0000,
808,747.49,13378.05,-13378.05,1396.8000,65535.0000,33187.4000,31790.6000,0.0000,0.0000,0.0000,
809,747.90,13370.74,-13370.74,1408.8000,65535.0000,32609.0000,31200.2000,0.0000,0.0000,0.0000,
810,748.31,13363.44,-13363.44,1415.2000,65535.0000,32565.8000,31150.6000,0.0000,0.0000,0.0000,
811,748.72,13356.15,-13356.15,1419.6000,65535.0000,32711.4000,31291.8000,0.0000,0.0000,0.0000,
812,749.13,13348.87,-13348.87,1402.6000,65535.0000,32709.2000,31306.6000,0.0000,0.0000,0.0000,
813,749.54,13341.60,-13341.60,1389.8000,65535.0000,32712.2000,31322.4000,0.0000,0.0000,0.0000,
814,749.94,13334.35,-13334.35,1411.0000,65535.0000,32604.2000,31193.2000,0.0000,0.0000,0.0000,
815,750.35,13327.10,-13327.10,1426.2000,65535.0000,32320.0000,30893.8000,0.0000,0.0000,0.0000,
816,750.76,13319.87,-13319.87,1404.0000,65535.0000,32381.4000,30977.4000,0.0000,0.0000,0.0000,
817,751.17,13312.65,-13312.65,1416.0000,65535.0000,32144.4000,30728.4000,0.0000,0.0000,0.0000,
818,751.57,13305.45,-13305.45,1422.8000,65535.0000,32376.2000,30953.4000,0.0000,0.0000,0.0000,
819,751.98,13298.25,-13298.25,1400.2000,65535.0000,32168.8000,30768.6000,0.0000,0.0000,0.0000,
820,752.39,13291.06,-13291.06,1406.6000,65535.0000,32059.0000,30652.4000,0.0000,0.0000,0.0000,
821,752.79,13283.89,-13283.89,1395.8000,65535.0000,31892.8000,30497.0000,0.0000,0.0000,0.0000,
822,753.20,13276.73,-13276.73,1417.6000,65535.0000,31620.6000,30203.0000,0.0000,0.0000,0.0000,
823,753.60,13269.58,-13269.58,1391.0000,65535.0000,31392.6000,30001.6000,0.0000,0.0000,0.0000,
824,754.01,13262.44,-13262.44,1405.0000,65535.0000,31621.8000,30216.8000,0.0000,0.0000,0.0000,
825,754.41,13255.31,-13255.31,1407.4000,65535.0000,31359.6000,29952.2000,0.0000,0.0000,0.0000,
826,754.82,13248.19,-13248.19,1406.6000,65535.0000,31712.2000,30305.6000,0.0000,0.0000,0.0000,
827,755.22,13241.09,-13241.09,1413.0000,65535.0000,31745.4000,30332.4000,0.0000,0.0000,0.0000,
828,755.63,13233.99,-13233.99,1388.8000,65535.0000,31594.2000,30205.4000,0.0000,0.0000,0.0000,
829,756.03,13226.91,-13226.91,1417.4000,65535.0000,31123.8000,29706.4000,0.0000,0.0000,0.0000,
830,756.44,13219.84,-13219.84,1402.8000,65535.0000,31289.2000,29886.4000,0.0000,0.0000,0.0000,
831,756.84,13212.78,-13212.78,1398.2000,65535.0000,31202.4000,29804.2000,0.0000,0.0000,0.0000,
832,757.25,13205.73,-13205.73,1409.0000,65535.0000,31182.0000,29773.0000,0.0000,0.0000,0.0000,
833,757.65,13198.69,-13198.69,1401.6000,65535.0000,30948.2000,29546.6000,0.0000,0.0000,0.0000,
834,758.05,13191.67,-13191.67,1419.6000,65535.0000,30603.4000,29183.8000,0.0000,0.0000,0.0000,
835,758.46,13184.65,-13184.65,1400.8000,65535.0000,30274.4000,28873.6000,0.0000,0.0000,0.0000,
836,758.86,13177.65,-13177.65,1435.2000,65535.0000,30295.0000,28859.8000,0.0000,0.0000,0.0000,
837,759.26,13170.66,-13170.66,1423.8000,65535.0000,30231.4000,28807.6000,0.0000,0.0000,0.0000,
838,759.67,13163.67,-13163.67,1423.4000,65535.0000,30192.0000,28768.6000,0.0000,0.0000,0.0000,
839,760.07,13156.70,-13156.70,1414.2000,65535.0000,29910.6000,28496.4000,0.0000,0.0000,0.0000,
840,760.47,13149.74,-13149.74,1389.6000,65535.0000,29907.4000,28517.8000,0.0000,0.0000,0.0000,
841,760.87,13142.80,-13142.80,1408.6000,65535.0000,29793.2000,28384.6000,0.0000,0.0000,0.0000,
842,761.28,13135.86,-13135.86,1397.6000,65535.0000,29820.0000,28422.4000,0.0000,0.0000,0.0000,
843,761.68,13128.93,-13128.93,1410.0000,65535.0000,29844.4000,28434.4000,0.0000,0.0000,0.0000,
844,762.08,13122.02,-13122.02,1389.2000,65535.0000,29524.4000,28135.2000,0.0000,0.0000,0.0000,
845,762.48,13115.11,-13115.11,1409.2000,65535.0000,29499.0000,28089.8000,0.0000,0.0000,0.0000,
846,762.88,13108.22,-13108.22,1414.8000,65535.0000,29206.8000,27792.0000,0.0000,0.0000,0.0000,
847,763.28,13101.33,-13101.33,1422.2000,65535.0000,29202.8000,27780.6000,0.0000,0.0000,0.0000,
848,763.68,13094.46,-13094.46,1398.0000,65535.0000,29146.6000,27748.6000,0.0000,0.0000,0.0000,
849,764.08,13087.60,-13087.60,1400.4000,65535.0000,28995.0000,27594.6000,0.0000,0.0000,0.0000,
850,764.48,13080.75,-13080.75,1419.8000,65535.0000,29203.0000,27783.2000,0.0000,0.0000,0.0000,
851,764.88,13073.91,-13073.91,1406.4000,65535.0000,29053.6000,27647.2000,0.0000,0.0000,0.0000,
852,765.28,13067.08,-13067.08,1412.0000,65535.0000,28833.0000,27421.0000,0.0000,0.0000,0.0000,
853,765.68,13060.26,-13060.26,1398.4000,65535.0000,28897.2000,27498.8000,0.0000,0.0000,0.0000,
854,766.08,13053.45,-13053.45,1397.8000,65535.0000,28590.2000,27192.4000,0.0000,0.0000,0.0000,
855,766.48,13046.66,-13046.66,1418.8000,65535.0000,28347.2000,26928.4000,0.0000,0.0000,0.0000,
856,766.88,13039.87,-13039.87,1404.8000,65535.0000,28122.2000,26717.4000,0.0000,0.0000,0.0000,
857,767.28,13033.10,-13033.10,1447.2000,65535.0000,28017.8000,26570.6000,0.0000,0.0000,0.0000,
858,767.68,13026.33,-13026.33,1442.6000,65535.0000,28020.0000,26577.4000,0.0000,0.0000,0.0000,
859,768.07,13019.58,-13019.58,1429.0000,65535.0000,27863.4000,26434.4000,0.0000,0.0000,0.0000,
860,768.47,13012.83,-13012.83,1424.8000,65535.0000,27720.0000,26295.2000,0.0000,0.0000,0.0000,
861,768.87,13006.10,-13006.10,1388.2000,65535.0000,27714.2000,26326.0000,0.0000,0.0000,0.0000,
862,769.27,12999.38,-12999.38,1423.0000,65535.0000,27693.6000,26270.6000,0.0000,0.0000,0.0000,
863,769.66,12992.67,-12992.67,1398.0000,65535.0000,27352.8000,25954.8000,0.0000,0.0000,0.0000,
864,770.06,12985.96,-12985.96,1408.4000,65535.0000,27083.8000,25675.4000,0.0000,0.0000,0.0000,
865,770.46,12979.27,-12979.27,1399.4000,65535.0000,27022.0000,25622.6000,0.0000,0.0000,0.0000,
866,770.86,12972.59,-12972.59,1414.4000,65535.0000,26872.2000,25457.8000,0.0000,0.0000,0.0000,
867,771.25,12965.92,-12965.92,1424.8000,65535.0000,26934.0000,25509.2000,0.0000,0.0000,0.0000,
868,771.65,12959.26,-12959.26,1420.0000,65535.0000,26732.8000,25312.8000,0.0000,0.0000,0.0000,
869,772.04,12952.61,-12952.61,1413.6000,65535.0000,26640.2000,25226.6000,0.0000,0.0000,0.0000,
870,772.44,12945.98,-12945.98,1433.8000,65535.0000,26749.4000,25315.6000,0.0000,0.0000,0.0000,
871,772.84,12939.35,-12939.35,1410.8000,65535.0000,26484.4000,25073.6000,0.0000,0.0000,0.0000,
872,773.23,12932.73,-12932.73,1409.0000,65535.0000,26383.6000,24974.6000,0.0000,0.0000,0.0000,
873,773.63,12926.12,-12926.12,1411.6000,65535.0000,26358.6000,24947.0000,0.0000,0.0000,0.0000,
874,774.02,12919.52,-12919.52,1437.6000,65535.0000,26398.4000,24960.8000,0.0000,0.0000,0.0000,
875,774.42,12912.94,-12912.94,1408.2000,65535.0000,26237.8000,24829.6000,0.0000,0.0000,0.0000,
876,774.81,12906.36,-12906.36,1403.8000,65535.0000,25851.0000,24447.2000,0.0000,0.0000,0.0000,
877,775.21,12899.79,-12899.79,1401.6000,65535.0000,25627.8000,24226.2000,0.0000,0.0000,0.0000,
878,775.60,12893.24,-12893.24,1396.6000,65535.0000,25530.2000,24133.6000,0.0000,0.0000,0.0000,
879,775.99,12886.69,-12886.69,1435.4000,65535.0000,25397.8000,23962.4000,0.0000,0.0000,0.0000,
880,776.39,12880.15,-12880.15,1419.6000,65535.0000,25517.8000,24098.2000,0.0000,0.0000,0.0000,
881,776.78,12873.63,-12873.63,1409.6000,65535.0000,25260.0000,23850.4000,0.0000,0.0000,0.0000,
882,777.18,12867.11,-12867.11,1404.2000,65535.0000,25393.4000,23989.2000,0.0000,0.0000,0.0000,
883,777.57,12860.61,-12860.61,1413.4000,65535.0000,25274.2000,23860.8000,0.0000,0.0000,0.0000,
884,777.96,12854.11,-12854.11,1437.8000,65535.0000,24918.8000,23481.0000,0.0000,0.0000,0.0000,
885,778.35,12847.62,-12847.62,1413.8000,65535.0000,24848.6000,23434.8000,0.0000,0.0000,0.0000,
886,778.75,12841.15,-12841.15,1410.4000,65535.0000,24652.2000,23241.8000,0.0000,0.0000,0.0000,
887,779.14,12834.68,-12834.68,1404.8000,65535.0000,24470.0000,23065.2000,0.0000,0.0000,0.0000,
888,779.53,12828.23,-12828.23,1393.0000,65535.0000,24523.0000,23130.0000,0.0000,0.0000,0.0000,
889,779.92,12821.78,-12821.78,1393.6000,65535.0000,24310.8000,22917.2000,0.0000,0.0000,0.0000,
890,780.31,12815.35,-12815.35,1394.0000,65535.0000,24139.8000,22745.8000,0.0000,0.0000,0.0000,
891,780.71,12808.92,-12808.92,1398.8000,65535.0000,24093.0000,22694.2000,0.0000,0.0000,0.0000,
892,781.10,12802.50,-12802.50,1394.8000,65535.0000,24046.4000,22651.6000,0.0000,0.0000,0.0000,
893,781.49,12796.10,-12796.10,1409.0000,65535.0000,24012.8000,22603.8000,0.0000,0.0000,0.0000,
894,781.88,12789.70,-12789.70,1408.0000,65535.0000,24036.4000,22628.4000,0.0000,0.0000,0.0000,
895,782.27,12783.32,-12783.32,1417.2000,65535.0000,24002.2000,22585.0000,0.0000,0.0000,0.0000,
896,782.66,12776.94,-12776.94,1395.6000,65535.0000,23895.2000,22499.6000,0.0000,0.0000,0.0000,
897,783.05,12770.57,-12770.57,1409.4000,65535.0000,23828.8000,22419.4000,0.0000,0.0000,0.0000,
898,783.44,12764.22,-12764.22,1392.8000,65535.0000,23830.4000,22437.6000,0.0000,0.0000,0.0000,
899,783.83,12757.87,-12757.87,1417.4000,65535.0000,23810.8000,22393.4000,0.0000,0.0000,0.0000,
900,784.22,12751.53,-12751.53,1402.2000,65535.0000,23582.8000,22180.6000,0.0000,0.0000,0.0000,
901,784.61,12745.20,-12745.20,1404.8000,65535.0000,23607.4000,22202.6000,0.0000,0.0000,0.0000,
902,785.00,12738.89,-12738.89,1393.4000,65535.0000,23663.4000,22270.0000,0.0000,0.0000,0.0000,
903,785.39,12732.58,-12732.58,1388.8000,65535.0000,23198.8000,21810.0000,0.0000,0.0000,0.0000,
904,785.78,12726.28,-12726.28,1402.8000,65535.0000,23309.4000,21906.6000,0.0000,0.0000,0.0000,
905,786.16,12719.99,-12719.99,1413.8000,65535.0000,23321.2000,21907.4000,0.0000,0.0000,0.0000,
906,786.55,12713.71,-12713.71,1417.0000,65535.0000,23211.8000,21794.8000,0.0000,0.0000,0.0000,
907,786.94,12707.44,-12707.44,1397.4000,65535.0000,23178.4000,21781.0000,0.0000,0.0000,0.0000,
908,787.33,12701.18,-12701.18,1400.6000,65535.0000,23110.4000,21709.8000,0.0000,0.0000,0.0000,
909,787.72,12694.93,-12694.93,1389.0000,65535.0000,23167.8000,21778.8000,0.0000,0.0000,0.0000,
910,788.10,12688.69,-12688.69,1418.0000,65535.0000,22819.6000,21401.6000,0.0000,0.0000,0.0000,
911,788.49,12682.46,-12682.46,1401.2000,65535.0000,22562.2000,21161.0000,0.0000,0.0000,0.0000,
912,788.88,12676.24,-12676.24,1393.0000,65535.0000,22516.2000,21123.2000,0.0000,0.0000,0.0000,
913,789.26,12670.03,-12670.03,1401.2000,65535.0000,22571.4000,21170.2000,0.0000,0.0000,0.0000,
914,789.65,12663.83,-12663.83,1404.8000,65535.0000,22374.6000,20969.8000,0.0000,0.0000,0.0000,
915,790.04,12657.63,-12657.63,1399.4000,65535.0000,22417.2000,21017.8000,0.0000,0.0000,0.0000,
916,790.42,12651.45,-12651.45,1406.2000,65535.0000,22358.0000,20951.8000,0.0000,0.0000,0.0000,
917,790.81,12645.28,-12645.28,1408.0000,65535.0000,22367.6000,20959.6000,0.0000,0.0000,0.0000,
918,791.19,12639.11,-12639.11,1388.6000,65535.0000,22349.0000,20960.4000,0.0000,0.0000,0.0000,
919,791.58,12632.96,-12632.96,1406.6000,65535.0000,22167.4000,20760.8000,0.0000,0.0000,0.0000,
920,791.97,12626.81,-12626.81,1402.4000,65535.0000,22151.8000,20749.4000,0.0000,0.0000,0.0000,
921,792.35,12620.67,-12620.67,1404.8000,65535.0000,21937.4000,20532.6000,0.0000,0.0000,0.0000,
922,792.74,12614.55,-12614.55,1386.8000,65535.0000,21674.0000,20287.2000,0.0000,0.0000,0.0000,
923,793.12,12608.43,-12608.43,1399.6000,65535.0000,21730.2000,20330.6000,0.0000,0.0000,0.0000,
924,793.50,12602.32,-12602.32,1409.0000,65535.0000,21559.0000,20150.0000,0.0000,0.0000,0.0000,
925,793.89,12596.22,-12596.22,1418.2000,65535.0000,21734.0000,20315.8000,0.0000,0.0000,0.0000,
926,794.27,12590.13,-12590.13,1401.4000,65535.0000,21545.8000,20144.4000,0.0000,0.0000,0.0000,
927,794.66,12584.05,-12584.05,1396.8000,65535.0000,21396.0000,19999.2000,0.0000,0.0000,0.0000,
928,795.04,12577.98,-12577.98,1383.8000,65535.0000,21328.4000,19944.6000,0.0000,0.0000,0.0000,
929,795.42,12571.92,-12571.92,1384.0000,65535.0000,21353.6000,19969.6000,0.0000,0.0000,0.0000,
930,795.81,12565.86,-12565.86,1404.4000,65535.0000,21434.8000,20030.4000,0.0000,0.0000,0.0000,
931,796.19,12559.82,-12559.82,1424.0000,65535.0000,21308.8000,19884.8000,0.0000,0.0000,0.0000,
932,796.57,12553.78,-12553.78,1399.4000,65535.0000,21254.8000,19855.4000,0.0000,0.0000,0.0000,
933,796.96,12547.76,-12547.76,1396.0000,65535.0000,21195.0000,19799.0000,0.0000,0.0000,0.0000,
934,797.34,12541.74,-12541.74,1405.4000,65535.0000,21199.2000,19793.8000,0.0000,0.0000,0.0000,
935,797.72,12535.74,-12535.74,1383.2000,65535.0000,21288.8000,19905.6000,0.0000,0.0000,0.0000,
936,798.10,12529.74,-12529.74,1384.6000,65535.0000,21098.2000,19713.6000,0.0000,0.0000,0.0000,
937,798.48,12523.75,-12523.75,1395.8000,65535.0000,21121.0000,19725.2000,0.0000,0.0000,0.0000,
938,798.86,12517.77,-12517.77,1405.6000,65535.0000,20828.8000,19423.2000,0.0000,0.0000,0.0000,
939,799.25,12511.80,-12511.80,1404.6000,65535.0000,20872.0000,19467.4000,0.0000,0.0000,0.0000,
940,799.63,12505.83,-12505.83,1422.0000,65535.0000,20760.6000,19338.6000,0.0000,0.0000,0.0000,
941,800.01,12499.88,-12499.88,1434.6000,65535.0000,20636.8000,19202.2000,0.0000,0.0000,0.0000,
942,800.39,12493.94,-12493.94,1401.6000,65535.0000,20453.4000,19051.8000,0.0000,0.0000,0.0000,
943,800.77,12488.00,-12488.00,1403.4000,65535.0000,20533.6000,19130.2000,0.0000,0.0000,0.0000,
944,801.15,12482.08,-12482.08,1420.8000,65535.0000,20635.4000,19214.6000,0.0000,0.0000,0.0000,
945,801.53,12476.16,-12476.16,1405.6000,65535.0000,20416.2000,19010.6000,0.0000,0.0000,0.0000,
946,801.91,12470.25,-12470.25,1417.0000,65535.0000,20358.2000,18941.2000,0.0000,0.0000,0.0000,
947,802.29,12464.35,-12464.35,1396.6000,65535.0000,20471.2000,19074.6000,0.0000,0.0000,0.0000,
948,802.67,12458.46,-12458.46,1408.2000,65535.0000,20209.8000,18801.6000,0.0000,0.0000,0.0000,
949,803.05,12452.58,-12452.58,1415.0000,65535.0000,20385.8000,18970.8000,0.0000,0.0000,0.0000,
950,803.43,12446.71,-12446.71,1400.4000,65535.0000,20237.2000,18836.8000,0.0000,0.0000,0.0000,
951,803.80,12440.84,-12440.84,1402.8000,65535.0000,20149.4000,18746.6000,0.0000,0.0000,0.0000,
952,804.18,12434.99,-12434.99,1390.4000,65535.0000,20140.8000,18750.4000,0.0000,0.0000,0.0000,
953,804.56,12429.14,-12429.14,1417.4000,65535.0000,20134.0000,18716.6000,0.0000,0.0000,0.0000,
954,804.94,12423.30,-12423.30,1433.6000,65535.0000,20057.8000,18624.2000,0.0000,0.0000,0.0000,
955,805.32,12417.48,-12417.48,1420.2000,65535.0000,19981.6000,18561.4000,0.0000,0.0000,0.0000,
956,805.69,12411.66,-12411.66,1421.6000,65535.0000,19963.8000,18542.2000,0.0000,0.0000,0.0000,
957,806.07,12405.84,-12405.84,1435.6000,65535.0000,19866.0000,18430.4000,0.0000,0.0000,0.0000,
958,806.45,12400.04,-12400.04,1415.2000,65535.0000,19895.6000,18480.4000,0.0000,0.0000,0.0000,
959,806.83,12394.25,-12394.25,1404.2000,65535.0000,19707.4000,18303.2000,0.0000,0.0000,0.0000,
960,807.20,12388.46,-12388.46,1394.6000,65535.0000,19783.8000,18389.2000,0.0000,0.0000,0.0000,
961,807.58,12382.69,-12382.69,1398.2000,65535.0000,19659.2000,18261.0000,0.0000,0.0000,0.0000,
962,807.96,12376.92,-12376.92,1436.4000,65535.0000,19606.2000,18169.8000,0.0000,0.0000,0.0000,
963,808.33,12371.16,-12371.16,1404.0000,65535.0000,19547.2000,18143.2000,0.0000,0.0000,0.0000,
964,808.71,12365.41,-12365.41,1422.8000,65535.0000,19616.2000,18193.4000,0.0000,0.0000,0.0000,
965,809.08,12359.67,-12359.67,1396.8000,65535.0000,19499.4000,18102.6000,0.0000,0.0000,0.0000,
966,809.46,12353.93,-12353.93,1407.2000,65535.0000,19728.0000,18320.8000,0.0000,0.0000,0.0000,
967,809.83,12348.21,-12348.21,1406.8000,65535.0000,19542.6000,18135.8000,0.0000,0.0000,0.0000,
968,810.21,12342.49,-12342.49,1383.0000,65535.0000,19425.8000,18042.8000,0.0000,0.0000,0.0000,
969,810.58,12336.78,-12336.78,1384.8000,65535.0000,19269.2000,17884.4000,0.0000,0.0000,0.0000,
970,810.96,12331.08,-12331.08,1407.4000,65535.0000,19417.0000,18009.6000,0.0000,0.0000,0.0000,
971,811.33,12325.39,-12325.39,1419.0000,65535.0000,19273.4000,17854.4000,0.0000,0.0000,0.0000,
972,811.71,12319.71,-12319.71,1400.8000,65535.0000,19211.4000,17810.6000,0.0000,0.0000,0.0000,
973,812.08,12314.04,-12314.04,1389.2000,65535.0000,19156.6000,17767.4000,0.0000,0.0000,0.0000,
974,812.46,12308.37,-12308.37,1394.0000,65535.0000,19075.2000,17681.2000,0.0000,0.0000,0.0000,
975,812.83,12302.72,-12302.72,1418.6000,65535.0000,19258.2000,17839.6000,0.0000,0.0000,0.0000,
976,813.20,12297.07,-12297.07,1410.4000,65535.0000,19146.4000,17736.0000,0.0000,0.0000,0.0000,
977,813.58,12291.43,-12291.43,1393.2000,65535.0000,19002.8000,17609.6000,0.0000,0.0000,0.0000,
978,813.95,12285.79,-12285.79,1407.2000,65535.0000,19041.0000,17633.8000,0.0000,0.0000,0.0000,
979,814.32,12280.17,-12280.17,1412.8000,65535.0000,18978.0000,17565.2000,0.0000,0.0000,0.0000,
980,814.69,12274.56,-12274.56,1412.8000,65535.0000,18991.4000,17578.6000,0.0000,0.0000,0.0000,
981,815.07,12268.95,-12268.95,1405.2000,65535.0000,18866.2000,17461.0000,0.0000,0.0000,0.0000,
982,815.44,12263.35,-12263.35,1407.0000,65535.0000,18837.0000,17430.0000,0.0000,0.0000,0.0000,
983,815.81,12257.76,-12257.76,1416.4000,65535.0000,18615.0000,17198.6000,0.0000,0.0000,0.0000,
984,816.18,12252.18,-12252.18,1393.0000,65535.0000,18628.8000,17235.8000,0.0000,0.0000,0.0000,
985,816.55,12246.61,-12246.61,1406.4000,65535.0000,18677.4000,17271.0000,0.0000,0.0000,0.0000,
986,816.92,12241.04,-12241.04,1381.8000,65535.0000,18720.8000,17339.0000,0.0000,0.0000,0.0000,
987,817.29,12235.48,-12235.48,1400.2000,65535.0000,18750.6000,17350.4000,0.0000,0.0000,0.0000,
988,817.67,12229.94,-12229.94,1429.8000,65535.0000,18842.4000,17412.6000,0.0000,0.0000,0.0000,
989,818.04,12224.40,-12224.40,1417.6000,65535.0000,18627.4000,17209.8000,0.0000,0.0000,0.0000,
990,818.41,12218.86,-12218.86,1407.6000,65535.0000,18508.8000,17101.2000,0.0000,0.0000,0.0000,
991,818.78,12213.34,-12213.34,1399.4000,65535.0000,18485.8000,17086.4000,0.0000,0.0000,0.0000,
992,819.15,12207.82,-12207.82,1404.4000,65535.0000,18474.4000,17070.0000,0.0000,0.0000,0.0000,
993,819.52,12202.32,-12202.32,1376.2000,65535.0000,18413.8000,17037.6000,0.0000,0.0000,0.0000,
994,819.89,12196.82,-12196.82,1412.4000,65535.0000,18293.0000,16880.6000,0.0000,0.0000,0.0000,
995,820.26,12191.32,-12191.32,1410.2000,65535.0000,18243.6000,16833.4000,0.0000,0.0000,0.0000,
996,820.62,12185.84,-12185.84,1373.6000,65535.0000,18220.6000,16847.0000,0.0000,0.0000,0.0000,
997,820.99,12180.37,-12180.37,1384.0000,65535.0000,18205.0000,16821.0000,0.0000,0.0000,0.0000,
998,821.36,12174.90,-12174.90,1387.8000,65535.0000,17948.4000,16560.6000,0.0000,0.0000,0.0000,
999,821.73,12169.44,-12169.44,1381.0000,65535.0000,17959.8000,16578.8000,0.0000,0.0000,0.0000,
