File Version;BWSpec4.03_33_C
Date,2026-04-16 14:46:45
title,ZMYE
model,BRC1K
c code,ZMYE
operator,
port1,0
baud1,3
pixel_start,0
pixel_end,999
step,1
units,1
bkcolor,16777215
show_mode,3
data_mode,0
pixel_mode,0
intigration times(ms),10
average number,5
time_multiply,1
spectrometer_type ,71
yaxis,1
yaxis_min,-494
yaxis_max,65535
xaxis,0
xaxis_min,0
xaxis_max,999
irrands_DispWLMin,100
irrands_DispWLMax,1000
yaxis_min_6,0
yaxis_max_6,0
irradiance_unit,0
Color_Data_Flag,0
Color_StartWL,400
Color_EndWL,700
Color_IncWL,10
power_unit_index,3
photometric_index,0
Illuminant_index,3
observer_index,0
lab_l,0
lab_a,0
lab_b,0
radiometric_flag,0
coefs_a0,348.690626413622
coefs_a1,0.577242842360403
coefs_a2,-0.000102397725884922
coefs_a3,-1.43696470178894E-09
coefs_b0,-604.699216452593
coefs_b1,1.81821494738794
coefs_b2,-0.000542372268672448
coefs_b3,8.54199818797248E-07
coefs_r0,1
coefs_r1,0
coefs_r2,0
coefs_r3,0
coefs_j0,1
coefs_j1,0
coefs_j2,0
coefs_j3,0
enable_coefs_r,0
all_data_save,1
select_option,-1
interval_time,10
pixel_num,1000
sel_pixel_start,0
sel_pixel_end,968
sel_pixel_delta,1
dark_compensate,0
dark_compensate_value_1,0
dark_compensate_value_2,0
dark_compensate_value_3,0
monitor pixel_0,0
monitor pixel_1,0
monitor pixel_2,0
monitor pixel_3,0
monitor pixel_4,0
monitor pixel_5,0
vertical_select_flag,0
vertical_line3,0
vertical_line4,0
vertical_line3_wv,1
vertical_line4_wv,1
vertical_line_flag,0
vertical_line_ratio,0
laser_wavelength,0
laser_powerlevel,0
overlay_js,0
Relative Intensity Correction Flag,0
Pixel,Wavelength,Wavenumber,Raman Shift,Dark,Reference,Raw data #1,Dark Subtracted #1,%TR #1,Absorbance #1,Irradiance (lumen) #1,
0,348.69,28678.72,-28678.72,1407.8000,65535.0000,1573.6000,165.8000,0.0000,0.0000,0.0000,
1,349.27,28631.33,-28631.33,1411.4000,65535.0000,1565.6000,154.2000,0.0000,0.0000,0.0000,
2,349.84,28584.11,-28584.11,1413.4000,65535.0000,1557.4000,144.0000,0.0000,0.0000,0.0000,
3,350.42,28537.07,-28537.07,1422.8000,65535.0000,1592.0000,169.2000,0.0000,0.0000,0.0000,
4,351.00,28490.19,-28490.19,1417.2000,65535.0000,1556.6000,139.4000,0.0000,0.0000,0.0000,
5,351.57,28443.49,-28443.49,1423.8000,65535.0000,1593.0000,169.2000,0.0000,0.0000,0.0000,
6,352.15,28396.96,-28396.96,1422.2000,65535.0000,1545.2000,123.0000,0.0000,0.0000,0.0000,
7,352.73,28350.59,-28350.59,1403.4000,65535.0000,1565.8000,162.4000,0.0000,0.0000,0.0000,
8,353.30,28304.40,-28304.40,1421.6000,65535.0000,1560.0000,138.4000,0.0000,0.0000,0.0000,
9,353.88,28258.36,-28258.36,1400.4000,65535.0000,1566.4000,166.0000,0.0000,0.0000,0.0000,
10,354.45,28212.50,-28212.50,1404.0000,65535.0000,1581.8000,177.8000,0.0000,0.0000,0.0000,
11,355.03,28166.80,-28166.80,1398.2000,65535.0000,1548.2000,150.0000,0.0000,0.0000,0.0000,
12,355.60,28121.26,-28121.26,1429.2000,65535.0000,1575.0000,145.8000,0.0000,0.0000,0.0000,
13,356.18,28075.89,-28075.89,1423.0000,65535.0000,1575.2000,152.2000,0.0000,0.0000,0.0000,
14,356.75,28030.68,-28030.68,1437.2000,65535.0000,1583.0000,145.8000,0.0000,0.0000,0.0000,
15,357.33,27985.63,-27985.63,1413.6000,65535.0000,1561.0000,147.4000,0.0000,0.0000,0.0000,
16,357.90,27940.74,-27940.74,1424.2000,65535.0000,1558.8000,134.6000,0.0000,0.0000,0.0000,
17,358.47,27896.01,-27896.01,1423.0000,65535.0000,1571.0000,148.0000,0.0000,0.0000,0.0000,
18,359.05,27851.44,-27851.44,1417.8000,65535.0000,1566.4000,148.6000,0.0000,0.0000,0.0000,
19,359.62,27807.03,-27807.03,1438.8000,65535.0000,1567.2000,128.4000,0.0000,0.0000,0.0000,
20,360.19,27762.78,-27762.78,1422.0000,65535.0000,1550.4000,128.4000,0.0000,0.0000,0.0000,
21,360.77,27718.68,-27718.68,1427.4000,65535.0000,1571.6000,144.2000,0.0000,0.0000,0.0000,
22,361.34,27674.74,-27674.74,1403.8000,65535.0000,1561.8000,158.0000,0.0000,0.0000,0.0000,
23,361.91,27630.95,-27630.95,1413.8000,65535.0000,1565.2000,151.4000,0.0000,0.0000,0.0000,
24,362.49,27587.31,-27587.31,1426.4000,65535.0000,1539.8000,113.4000,0.0000,0.0000,0.0000,
25,363.06,27543.83,-27543.83,1414.0000,65535.0000,1562.8000,148.8000,0.0000,0.0000,0.0000,
26,363.63,27500.50,-27500.50,1411.2000,65535.0000,1569.6000,158.4000,0.0000,0.0000,0.0000,
27,364.20,27457.33,-27457.33,1436.4000,65535.0000,1555.0000,118.6000,0.0000,0.0000,0.0000,
28,364.77,27414.30,-27414.30,1416.0000,65535.0000,1589.2000,173.2000,0.0000,0.0000,0.0000,
29,365.34,27371.42,-27371.42,1402.8000,65535.0000,1570.2000,167.4000,0.0000,0.0000,0.0000,
30,365.92,27328.70,-27328.70,1404.0000,65535.0000,1562.4000,158.4000,0.0000,0.0000,0.0000,
31,366.49,27286.12,-27286.12,1426.6000,65535.0000,1559.4000,132.8000,0.0000,0.0000,0.0000,
32,367.06,27243.69,-27243.69,1449.6000,65535.0000,1556.2000,106.6000,0.0000,0.0000,0.0000,
33,367.63,27201.40,-27201.40,1421.8000,65535.0000,1561.8000,140.0000,0.0000,0.0000,0.0000,
34,368.20,27159.27,-27159.27,1420.2000,65535.0000,1581.6000,161.4000,0.0000,0.0000,0.0000,
35,368.77,27117.27,-27117.27,1420.8000,65535.0000,1563.8000,143.0000,0.0000,0.0000,0.0000,
36,369.34,27075.43,-27075.43,1428.0000,65535.0000,1579.0000,151.0000,0.0000,0.0000,0.0000,
37,369.91,27033.72,-27033.72,1429.2000,65535.0000,1557.0000,127.8000,0.0000,0.0000,0.0000,
38,370.48,26992.16,-26992.16,1415.6000,65535.0000,1589.6000,174.0000,0.0000,0.0000,0.0000,
39,371.05,26950.74,-26950.74,1440.2000,65535.0000,1571.0000,130.8000,0.0000,0.0000,0.0000,
40,371.62,26909.47,-26909.47,1436.6000,65535.0000,1573.8000,137.2000,0.0000,0.0000,0.0000,
41,372.19,26868.33,-26868.33,1441.4000,65535.0000,1578.0000,136.6000,0.0000,0.0000,0.0000,
42,372.75,26827.34,-26827.34,1412.8000,65535.0000,1559.8000,147.0000,0.0000,0.0000,0.0000,
43,373.32,26786.48,-26786.48,1442.8000,65535.0000,1593.2000,150.4000,0.0000,0.0000,0.0000,
44,373.89,26745.77,-26745.77,1429.0000,65535.0000,1606.0000,177.0000,0.0000,0.0000,0.0000,
45,374.46,26705.19,-26705.19,1457.0000,65535.0000,1620.4000,163.4000,0.0000,0.0000,0.0000,
46,375.03,26664.75,-26664.75,1430.6000,65535.0000,1636.4000,205.8000,0.0000,0.0000,0.0000,
47,375.59,26624.44,-26624.44,1426.8000,65535.0000,1632.6000,205.8000,0.0000,0.0000,0.0000,
48,376.16,26584.28,-26584.28,1425.4000,65535.0000,1631.0000,205.6000,0.0000,0.0000,0.0000,
49,376.73,26544.24,-26544.24,1420.0000,65535.0000,1605.4000,185.4000,0.0000,0.0000,0.0000,
50,377.30,26504.35,-26504.35,1412.8000,65535.0000,1640.0000,227.2000,0.0000,0.0000,0.0000,
51,377.86,26464.58,-26464.58,1420.0000,65535.0000,1634.2000,214.2000,0.0000,0.0000,0.0000,
52,378.43,26424.95,-26424.95,1420.6000,65535.0000,1636.2000,215.6000,0.0000,0.0000,0.0000,
53,379.00,26385.46,-26385.46,1420.6000,65535.0000,1628.8000,208.2000,0.0000,0.0000,0.0000,
54,379.56,26346.09,-26346.09,1452.2000,65535.0000,1621.4000,169.2000,0.0000,0.0000,0.0000,
55,380.13,26306.86,-26306.86,1441.6000,65535.0000,1657.4000,215.8000,0.0000,0.0000,0.0000,
56,380.69,26267.76,-26267.76,1415.2000,65535.0000,1658.4000,243.2000,0.0000,0.0000,0.0000,
57,381.26,26228.78,-26228.78,1438.2000,65535.0000,1661.6000,223.4000,0.0000,0.0000,0.0000,
58,381.83,26189.94,-26189.94,1427.4000,65535.0000,1680.8000,253.4000,0.0000,0.0000,0.0000,
59,382.39,26151.23,-26151.23,1454.8000,65535.0000,1694.2000,239.4000,0.0000,0.0000,0.0000,
60,382.96,26112.64,-26112.64,1436.4000,65535.0000,1678.0000,241.6000,0.0000,0.0000,0.0000,
61,383.52,26074.19,-26074.19,1448.4000,65535.0000,1697.6000,249.2000,0.0000,0.0000,0.0000,
62,384.09,26035.85,-26035.85,1432.2000,65535.0000,1686.4000,254.2000,0.0000,0.0000,0.0000,
63,384.65,25997.65,-25997.65,1425.6000,65535.0000,1696.4000,270.8000,0.0000,0.0000,0.0000,
64,385.21,25959.57,-25959.57,1443.6000,65535.0000,1723.4000,279.8000,0.0000,0.0000,0.0000,
65,385.78,25921.62,-25921.62,1420.0000,65535.0000,1725.8000,305.8000,0.0000,0.0000,0.0000,
66,386.34,25883.79,-25883.79,1429.0000,65535.0000,1727.2000,298.2000,0.0000,0.0000,0.0000,
67,386.91,25846.08,-25846.08,1430.8000,65535.0000,1713.0000,282.2000,0.0000,0.0000,0.0000,
68,387.47,25808.50,-25808.50,1410.0000,65535.0000,1735.8000,325.8000,0.0000,0.0000,0.0000,
69,388.03,25771.04,-25771.04,1419.2000,65535.0000,1734.4000,315.2000,0.0000,0.0000,0.0000,
70,388.60,25733.71,-25733.71,1440.6000,65535.0000,1752.2000,311.6000,0.0000,0.0000,0.0000,
71,389.16,25696.49,-25696.49,1441.0000,65535.0000,1759.4000,318.4000,0.0000,0.0000,0.0000,
72,389.72,25659.40,-25659.40,1439.2000,65535.0000,1763.2000,324.0000,0.0000,0.0000,0.0000,
73,390.28,25622.43,-25622.43,1449.0000,65535.0000,1783.0000,334.0000,0.0000,0.0000,0.0000,
74,390.85,25585.57,-25585.57,1413.8000,65535.0000,1824.8000,411.0000,0.0000,0.0000,0.0000,
75,391.41,25548.84,-25548.84,1431.8000,65535.0000,1807.0000,375.2000,0.0000,0.0000,0.0000,
76,391.97,25512.22,-25512.22,1421.6000,65535.0000,1804.8000,383.2000,0.0000,0.0000,0.0000,
77,392.53,25475.72,-25475.72,1397.0000,65535.0000,1820.4000,423.4000,0.0000,0.0000,0.0000,
78,393.09,25439.34,-25439.34,1441.4000,65535.0000,1815.6000,374.2000,0.0000,0.0000,0.0000,
79,393.65,25403.08,-25403.08,1409.0000,65535.0000,1854.4000,445.4000,0.0000,0.0000,0.0000,
80,394.21,25366.93,-25366.93,1431.2000,65535.0000,1822.4000,391.2000,0.0000,0.0000,0.0000,
81,394.77,25330.90,-25330.90,1437.4000,65535.0000,1835.4000,398.0000,0.0000,0.0000,0.0000,
82,395.34,25294.99,-25294.99,1437.2000,65535.0000,1870.4000,433.2000,0.0000,0.0000,0.0000,
83,395.90,25259.19,-25259.19,1442.0000,65535.0000,1865.0000,423.0000,0.0000,0.0000,0.0000,
84,396.46,25223.50,-25223.50,1415.4000,65535.0000,1863.6000,448.2000,0.0000,0.0000,0.0000,
85,397.02,25187.93,-25187.93,1415.2000,65535.0000,1874.6000,459.4000,0.0000,0.0000,0.0000,
86,397.58,25152.47,-25152.47,1445.0000,65535.0000,1914.0000,469.0000,0.0000,0.0000,0.0000,
87,398.13,25117.12,-25117.12,1423.8000,65535.0000,1917.0000,493.2000,0.0000,0.0000,0.0000,
88,398.69,25081.89,-25081.89,1433.8000,65535.0000,1899.8000,466.0000,0.0000,0.0000,0.0000,
89,399.25,25046.77,-25046.77,1459.0000,65535.0000,1907.2000,448.2000,0.0000,0.0000,0.0000,
90,399.81,25011.75,-25011.75,1450.2000,65535.0000,1917.2000,467.0000,0.0000,0.0000,0.0000,
91,400.37,24976.85,-24976.85,1444.4000,65535.0000,1931.8000,487.4000,0.0000,0.0000,0.0000,
92,400.93,24942.06,-24942.06,1441.2000,65535.0000,1928.4000,487.2000,0.0000,0.0000,0.0000,
93,401.49,24907.38,-24907.38,1440.0000,65535.0000,1906.8000,466.8000,0.0000,0.0000,0.0000,
94,402.05,24872.81,-24872.81,1425.0000,65535.0000,1991.8000,566.8000,0.0000,0.0000,0.0000,
95,402.60,24838.34,-24838.34,1428.2000,65535.0000,1999.0000,570.8000,0.0000,0.0000,0.0000,
96,403.16,24803.99,-24803.99,1433.8000,65535.0000,1983.8000,550.0000,0.0000,0.0000,0.0000,
97,403.72,24769.74,-24769.74,1413.6000,65535.0000,1992.4000,578.8000,0.0000,0.0000,0.0000,
98,404.28,24735.60,-24735.60,1402.2000,65535.0000,2017.0000,614.8000,0.0000,0.0000,0.0000,
99,404.83,24701.56,-24701.56,1444.2000,65535.0000,2031.6000,587.4000,0.0000,0.0000,0.0000,
100,405.39,24667.63,-24667.63,1428.8000,65535.0000,2035.6000,606.8000,0.0000,0.0000,0.0000,
101,405.95,24633.81,-24633.81,1431.6000,65535.0000,2041.4000,609.8000,0.0000,0.0000,0.0000,
102,406.50,24600.09,-24600.09,1403.2000,65535.0000,2070.4000,667.2000,0.0000,0.0000,0.0000,
103,407.06,24566.48,-24566.48,1444.0000,65535.0000,2101.0000,657.0000,0.0000,0.0000,0.0000,
104,407.61,24532.97,-24532.97,1435.6000,65535.0000,2095.4000,659.8000,0.0000,0.0000,0.0000,
105,408.17,24499.56,-24499.56,1400.2000,65535.0000,2106.8000,706.6000,0.0000,0.0000,0.0000,
106,408.73,24466.26,-24466.26,1448.4000,65535.0000,2088.2000,639.8000,0.0000,0.0000,0.0000,
107,409.28,24433.06,-24433.06,1437.6000,65535.0000,2137.0000,699.4000,0.0000,0.0000,0.0000,
108,409.84,24399.96,-24399.96,1420.0000,65535.0000,2140.8000,720.8000,0.0000,0.0000,0.0000,
109,410.39,24366.97,-24366.97,1457.8000,65535.0000,2185.0000,727.2000,0.0000,0.0000,0.0000,
110,410.95,24334.07,-24334.07,1410.4000,65535.0000,2207.0000,796.6000,0.0000,0.0000,0.0000,
111,411.50,24301.28,-24301.28,1426.6000,65535.0000,2200.8000,774.2000,0.0000,0.0000,0.0000,
112,412.06,24268.59,-24268.59,1430.4000,65535.0000,2218.4000,788.0000,0.0000,0.0000,0.0000,
113,412.61,24235.99,-24235.99,1419.8000,65535.0000,2238.8000,819.0000,0.0000,0.0000,0.0000,
114,413.16,24203.50,-24203.50,1418.2000,65535.0000,2257.6000,839.4000,0.0000,0.0000,0.0000,
115,413.72,24171.10,-24171.10,1407.0000,65535.0000,2283.2000,876.2000,0.0000,0.0000,0.0000,
116,414.27,24138.81,-24138.81,1409.4000,65535.0000,2284.2000,874.8000,0.0000,0.0000,0.0000,
117,414.82,24106.61,-24106.61,1415.8000,65535.0000,2276.8000,861.0000,0.0000,0.0000,0.0000,
118,415.38,24074.51,-24074.51,1430.0000,65535.0000,2314.6000,884.6000,0.0000,0.0000,0.0000,
119,415.93,24042.50,-24042.50,1415.6000,65535.0000,2306.2000,890.6000,0.0000,0.0000,0.0000,
120,416.48,24010.60,-24010.60,1429.2000,65535.0000,2350.8000,921.6000,0.0000,0.0000,0.0000,
121,417.04,23978.79,-23978.79,1437.4000,65535.0000,2324.6000,887.2000,0.0000,0.0000,0.0000,
122,417.59,23947.07,-23947.07,1416.4000,65535.0000,2339.8000,923.4000,0.0000,0.0000,0.0000,
123,418.14,23915.46,-23915.46,1406.4000,65535.0000,2379.6000,973.2000,0.0000,0.0000,0.0000,
124,418.69,23883.93,-23883.93,1440.2000,65535.0000,2356.8000,916.6000,0.0000,0.0000,0.0000,
125,419.24,23852.50,-23852.50,1424.2000,65535.0000,2397.8000,973.6000,0.0000,0.0000,0.0000,
126,419.79,23821.17,-23821.17,1421.4000,65535.0000,2385.8000,964.4000,0.0000,0.0000,0.0000,
127,420.35,23789.93,-23789.93,1421.0000,65535.0000,2449.2000,1028.2000,0.0000,0.0000,0.0000,
128,420.90,23758.78,-23758.78,1400.0000,65535.0000,2459.4000,1059.4000,0.0000,0.0000,0.0000,
129,421.45,23727.73,-23727.73,1421.0000,65535.0000,2466.8000,1045.8000,0.0000,0.0000,0.0000,
130,422.00,23696.77,-23696.77,1440.6000,65535.0000,2478.4000,1037.8000,0.0000,0.0000,0.0000,
131,422.55,23665.90,-23665.90,1410.2000,65535.0000,2509.8000,1099.6000,0.0000,0.0000,0.0000,
132,423.10,23635.12,-23635.12,1448.4000,65535.0000,2537.2000,1088.8000,0.0000,0.0000,0.0000,
133,423.65,23604.43,-23604.43,1411.6000,65535.0000,2533.2000,1121.6000,0.0000,0.0000,0.0000,
134,424.20,23573.84,-23573.84,1431.6000,65535.0000,2571.4000,1139.8000,0.0000,0.0000,0.0000,
135,424.75,23543.33,-23543.33,1422.6000,65535.0000,2605.0000,1182.4000,0.0000,0.0000,0.0000,
136,425.30,23512.92,-23512.92,1418.8000,65535.0000,2640.2000,1221.4000,0.0000,0.0000,0.0000,
137,425.85,23482.60,-23482.60,1423.0000,65535.0000,2619.2000,1196.2000,0.0000,0.0000,0.0000,
138,426.40,23452.36,-23452.36,1423.8000,65535.0000,2711.6000,1287.8000,0.0000,0.0000,0.0000,
139,426.95,23422.22,-23422.22,1399.2000,65535.0000,2714.8000,1315.6000,0.0000,0.0000,0.0000,
140,427.49,23392.16,-23392.16,1427.0000,65535.0000,2702.8000,1275.8000,0.0000,0.0000,0.0000,
141,428.04,23362.19,-23362.19,1427.4000,65535.0000,2753.8000,1326.4000,0.0000,0.0000,0.0000,
142,428.59,23332.31,-23332.31,1431.6000,65535.0000,2797.6000,1366.0000,0.0000,0.0000,0.0000,
143,429.14,23302.52,-23302.52,1414.6000,65535.0000,2784.0000,1369.4000,0.0000,0.0000,0.0000,
144,429.69,23272.81,-23272.81,1430.8000,65535.0000,2790.2000,1359.4000,0.0000,0.0000,0.0000,
145,430.23,23243.19,-23243.19,1433.8000,65535.0000,2869.0000,1435.2000,0.0000,0.0000,0.0000,
146,430.78,23213.66,-23213.66,1410.8000,65535.0000,2885.0000,1474.2000,0.0000,0.0000,0.0000,
147,431.33,23184.21,-23184.21,1413.2000,65535.0000,2889.0000,1475.8000,0.0000,0.0000,0.0000,
148,431.87,23154.85,-23154.85,1455.6000,65535.0000,2931.8000,1476.2000,0.0000,0.0000,0.0000,
149,432.42,23125.57,-23125.57,1439.6000,65535.0000,2923.8000,1484.2000,0.0000,0.0000,0.0000,
150,432.97,23096.38,-23096.38,1424.0000,65535.0000,2963.4000,1539.4000,0.0000,0.0000,0.0000,
151,433.51,23067.28,-23067.28,1409.0000,65535.0000,3008.8000,1599.8000,0.0000,0.0000,0.0000,
152,434.06,23038.25,-23038.25,1425.8000,65535.0000,3026.8000,1601.0000,0.0000,0.0000,0.0000,
153,434.61,23009.31,-23009.31,1401.0000,65535.0000,3008.8000,1607.8000,0.0000,0.0000,0.0000,
154,435.15,22980.46,-22980.46,1422.4000,65535.0000,3063.0000,1640.6000,0.0000,0.0000,0.0000,
155,435.70,22951.69,-22951.69,1425.6000,65535.0000,3138.0000,1712.4000,0.0000,0.0000,0.0000,
156,436.24,22923.00,-22923.00,1439.6000,65535.0000,3123.8000,1684.2000,0.0000,0.0000,0.0000,
157,436.79,22894.39,-22894.39,1415.4000,65535.0000,3139.4000,1724.0000,0.0000,0.0000,0.0000,
158,437.33,22865.87,-22865.87,1413.0000,65535.0000,3164.8000,1751.8000,0.0000,0.0000,0.0000,
159,437.88,22837.42,-22837.42,1430.4000,65535.0000,3181.0000,1750.6000,0.0000,0.0000,0.0000,
160,438.42,22809.06,-22809.06,1462.4000,65535.0000,3166.4000,1704.0000,0.0000,0.0000,0.0000,
161,438.97,22780.78,-22780.78,1417.0000,65535.0000,3227.2000,1810.2000,0.0000,0.0000,0.0000,
162,439.51,22752.58,-22752.58,1412.6000,65535.0000,3261.8000,1849.2000,0.0000,0.0000,0.0000,
163,440.05,22724.46,-22724.46,1414.0000,65535.0000,3329.0000,1915.0000,0.0000,0.0000,0.0000,
164,440.60,22696.42,-22696.42,1418.2000,65535.0000,3341.2000,1923.0000,0.0000,0.0000,0.0000,
165,441.14,22668.47,-22668.47,1433.6000,65535.0000,3380.6000,1947.0000,0.0000,0.0000,0.0000,
166,441.68,22640.59,-22640.59,1422.4000,65535.0000,3376.2000,1953.8000,0.0000,0.0000,0.0000,
167,442.23,22612.78,-22612.78,1428.0000,65535.0000,3396.4000,1968.4000,0.0000,0.0000,0.0000,
168,442.77,22585.06,-22585.06,1454.0000,65535.0000,3445.6000,1991.6000,0.0000,0.0000,0.0000,
169,443.31,22557.42,-22557.42,1394.0000,65535.0000,3429.6000,2035.6000,0.0000,0.0000,0.0000,
170,443.86,22529.85,-22529.85,1404.0000,65535.0000,3495.6000,2091.6000,0.0000,0.0000,0.0000,
171,444.40,22502.36,-22502.36,1417.4000,65535.0000,3546.8000,2129.4000,0.0000,0.0000,0.0000,
172,444.94,22474.95,-22474.95,1418.8000,65535.0000,3530.2000,2111.4000,0.0000,0.0000,0.0000,
173,445.48,22447.62,-22447.62,1416.8000,65535.0000,3567.0000,2150.2000,0.0000,0.0000,0.0000,
174,446.02,22420.36,-22420.36,1413.6000,65535.0000,3640.8000,2227.2000,0.0000,0.0000,0.0000,
175,446.56,22393.18,-22393.18,1438.6000,65535.0000,3643.4000,2204.8000,0.0000,0.0000,0.0000,
176,447.11,22366.08,-22366.08,1449.8000,65535.0000,3665.4000,2215.6000,0.0000,0.0000,0.0000,
177,447.65,22339.05,-22339.05,1425.6000,65535.0000,3715.2000,2289.6000,0.0000,0.0000,0.0000,
178,448.19,22312.10,-22312.10,1423.8000,65535.0000,3782.4000,2358.6000,0.0000,0.0000,0.0000,
179,448.73,22285.22,-22285.22,1412.2000,65535.0000,3793.0000,2380.8000,0.0000,0.0000,0.0000,
180,449.27,22258.42,-22258.42,1451.4000,65535.0000,3857.8000,2406.4000,0.0000,0.0000,0.0000,
181,449.81,22231.69,-22231.69,1427.0000,65535.0000,3865.0000,2438.0000,0.0000,0.0000,0.0000,
182,450.35,22205.03,-22205.03,1403.4000,65535.0000,3917.4000,2514.0000,0.0000,0.0000,0.0000,
183,450.89,22178.45,-22178.45,1421.4000,65535.0000,3995.4000,2574.0000,0.0000,0.0000,0.0000,
184,451.43,22151.95,-22151.95,1425.8000,65535.0000,4017.6000,2591.8000,0.0000,0.0000,0.0000,
185,451.97,22125.51,-22125.51,1435.4000,65535.0000,4092.0000,2656.6000,0.0000,0.0000,0.0000,
186,452.51,22099.15,-22099.15,1416.8000,65535.0000,4013.2000,2596.4000,0.0000,0.0000,0.0000,
187,453.04,22072.87,-22072.87,1432.8000,65535.0000,4104.2000,2671.4000,0.0000,0.0000,0.0000,
188,453.58,22046.65,-22046.65,1410.6000,65535.0000,4167.8000,2757.2000,0.0000,0.0000,0.0000,
189,454.12,22020.51,-22020.51,1431.6000,65535.0000,4287.4000,2855.8000,0.0000,0.0000,0.0000,
190,454.66,21994.44,-21994.44,1415.6000,65535.0000,4245.6000,2830.0000,0.0000,0.0000,0.0000,
191,455.20,21968.44,-21968.44,1441.2000,65535.0000,4403.2000,2962.0000,0.0000,0.0000,0.0000,
192,455.74,21942.51,-21942.51,1437.0000,65535.0000,4290.6000,2853.6000,0.0000,0.0000,0.0000,
193,456.27,21916.66,-21916.66,1438.0000,65535.0000,4369.8000,2931.8000,0.0000,0.0000,0.0000,
194,456.81,21890.87,-21890.87,1450.6000,65535.0000,4497.4000,3046.8000,0.0000,0.0000,0.0000,
195,457.35,21865.16,-21865.16,1424.8000,65535.0000,4552.2000,3127.4000,0.0000,0.0000,0.0000,
196,457.89,21839.51,-21839.51,1434.2000,65535.0000,4585.4000,3151.2000,0.0000,0.0000,0.0000,
197,458.42,21813.94,-21813.94,1425.2000,65535.0000,4642.4000,3217.2000,0.0000,0.0000,0.0000,
198,458.96,21788.43,-21788.43,1417.4000,65535.0000,4675.6000,3258.2000,0.0000,0.0000,0.0000,
199,459.50,21763.00,-21763.00,1417.6000,65535.0000,4703.8000,3286.2000,0.0000,0.0000,0.0000,
200,460.03,21737.63,-21737.63,1425.4000,65535.0000,4691.4000,3266.0000,0.0000,0.0000,0.0000,
201,460.57,21712.33,-21712.33,1426.8000,65535.0000,4820.4000,3393.6000,0.0000,0.0000,0.0000,
202,461.10,21687.10,-21687.10,1410.2000,65535.0000,4851.2000,3441.0000,0.0000,0.0000,0.0000,
203,461.64,21661.94,-21661.94,1411.0000,65535.0000,4917.4000,3506.4000,0.0000,0.0000,0.0000,
204,462.17,21636.85,-21636.85,1406.8000,65535.0000,4939.8000,3533.0000,0.0000,0.0000,0.0000,
205,462.71,21611.82,-21611.82,1409.8000,65535.0000,4956.4000,3546.6000,0.0000,0.0000,0.0000,
206,463.24,21586.86,-21586.86,1451.6000,65535.0000,4989.8000,3538.2000,0.0000,0.0000,0.0000,
207,463.78,21561.97,-21561.97,1437.8000,65535.0000,5005.8000,3568.0000,0.0000,0.0000,0.0000,
208,464.31,21537.15,-21537.15,1413.2000,65535.0000,5049.8000,3636.6000,0.0000,0.0000,0.0000,
209,464.85,21512.39,-21512.39,1404.6000,65535.0000,5167.6000,3763.0000,0.0000,0.0000,0.0000,
210,465.38,21487.70,-21487.70,1406.6000,65535.0000,5169.8000,3763.2000,0.0000,0.0000,0.0000,
211,465.92,21463.07,-21463.07,1430.6000,65535.0000,5233.8000,3803.2000,0.0000,0.0000,0.0000,
212,466.45,21438.51,-21438.51,1422.6000,65535.0000,5282.6000,3860.0000,0.0000,0.0000,0.0000,
213,466.98,21414.02,-21414.02,1420.8000,65535.0000,5376.0000,3955.2000,0.0000,0.0000,0.0000,
214,467.52,21389.59,-21389.59,1429.2000,65535.0000,5434.2000,4005.0000,0.0000,0.0000,0.0000,
215,468.05,21365.23,-21365.23,1417.8000,65535.0000,5574.6000,4156.8000,0.0000,0.0000,0.0000,
216,468.58,21340.93,-21340.93,1403.4000,65535.0000,5565.6000,4162.2000,0.0000,0.0000,0.0000,
217,469.12,21316.70,-21316.70,1423.6000,65535.0000,5750.0000,4326.4000,0.0000,0.0000,0.0000,
218,469.65,21292.53,-21292.53,1425.4000,65535.0000,5758.2000,4332.8000,0.0000,0.0000,0.0000,
219,470.18,21268.42,-21268.42,1413.0000,65535.0000,5827.2000,4414.2000,0.0000,0.0000,0.0000,
220,470.71,21244.38,-21244.38,1417.8000,65535.0000,5964.6000,4546.8000,0.0000,0.0000,0.0000,
221,471.24,21220.40,-21220.40,1411.6000,65535.0000,6059.0000,4647.4000,0.0000,0.0000,0.0000,
222,471.78,21196.49,-21196.49,1432.0000,65535.0000,6183.2000,4751.2000,0.0000,0.0000,0.0000,
223,472.31,21172.64,-21172.64,1406.4000,65535.0000,6248.8000,4842.4000,0.0000,0.0000,0.0000,
224,472.84,21148.85,-21148.85,1433.6000,65535.0000,6362.6000,4929.0000,0.0000,0.0000,0.0000,
225,473.37,21125.12,-21125.12,1421.2000,65535.0000,6526.0000,5104.8000,0.0000,0.0000,0.0000,
226,473.90,21101.46,-21101.46,1428.0000,65535.0000,6671.6000,5243.6000,0.0000,0.0000,0.0000,
227,474.43,21077.86,-21077.86,1426.2000,65535.0000,6772.0000,5345.8000,0.0000,0.0000,0.0000,
228,474.96,21054.32,-21054.32,1424.4000,65535.0000,6820.6000,5396.2000,0.0000,0.0000,0.0000,
229,475.49,21030.84,-21030.84,1404.6000,65535.0000,7065.0000,5660.4000,0.0000,0.0000,0.0000,
230,476.02,21007.43,-21007.43,1414.4000,65535.0000,7207.2000,5792.8000,0.0000,0.0000,0.0000,
231,476.55,20984.07,-20984.07,1424.8000,65535.0000,7325.2000,5900.4000,0.0000,0.0000,0.0000,
232,477.08,20960.78,-20960.78,1403.4000,65535.0000,7500.0000,6096.6000,0.0000,0.0000,0.0000,
233,477.61,20937.54,-20937.54,1395.0000,65535.0000,7714.2000,6319.2000,0.0000,0.0000,0.0000,
234,478.14,20914.37,-20914.37,1450.4000,65535.0000,7867.0000,6416.6000,0.0000,0.0000,0.0000,
235,478.67,20891.26,-20891.26,1428.2000,65535.0000,7985.4000,6557.2000,0.0000,0.0000,0.0000,
236,479.20,20868.20,-20868.20,1436.0000,65535.0000,8233.2000,6797.2000,0.0000,0.0000,0.0000,
237,479.73,20845.21,-20845.21,1437.6000,65535.0000,8413.8000,6976.2000,0.0000,0.0000,0.0000,
238,480.25,20822.28,-20822.28,1410.8000,65535.0000,8617.2000,7206.4000,0.0000,0.0000,0.0000,
239,480.78,20799.40,-20799.40,1411.4000,65535.0000,8792.0000,7380.6000,0.0000,0.0000,0.0000,
240,481.31,20776.59,-20776.59,1428.6000,65535.0000,9026.2000,7597.6000,0.0000,0.0000,0.0000,
241,481.84,20753.83,-20753.83,1410.0000,65535.0000,9163.4000,7753.4000,0.0000,0.0000,0.0000,
242,482.37,20731.14,-20731.14,1428.2000,65535.0000,9423.4000,7995.2000,0.0000,0.0000,0.0000,
243,482.89,20708.50,-20708.50,1388.8000,65535.0000,9621.2000,8232.4000,0.0000,0.0000,0.0000,
244,483.42,20685.92,-20685.92,1432.6000,65535.0000,9946.6000,8514.0000,0.0000,0.0000,0.0000,
245,483.95,20663.40,-20663.40,1440.8000,65535.0000,10028.8000,8588.0000,0.0000,0.0000,0.0000,
246,484.47,20640.93,-20640.93,1435.6000,65535.0000,10229.6000,8794.0000,0.0000,0.0000,0.0000,
247,485.00,20618.52,-20618.52,1420.8000,65535.0000,10462.6000,9041.8000,0.0000,0.0000,0.0000,
248,485.53,20596.17,-20596.17,1407.0000,65535.0000,10691.2000,9284.2000,0.0000,0.0000,0.0000,
249,486.05,20573.88,-20573.88,1423.0000,65535.0000,10930.2000,9507.2000,0.0000,0.0000,0.0000,
250,486.58,20551.65,-20551.65,1416.8000,65535.0000,11111.6000,9694.8000,0.0000,0.0000,0.0000,
251,487.10,20529.47,-20529.47,1433.4000,65535.0000,11367.8000,9934.4000,0.0000,0.0000,0.0000,
252,487.63,20507.35,-20507.35,1413.0000,65535.0000,11519.0000,10106.0000,0.0000,0.0000,0.0000,
253,488.16,20485.28,-20485.28,1414.4000,65535.0000,11744.0000,10329.6000,0.0000,0.0000,0.0000,
254,488.68,20463.27,-20463.27,1420.4000,65535.0000,11906.6000,10486.2000,0.0000,0.0000,0.0000,
255,489.21,20441.32,-20441.32,1426.4000,65535.0000,12100.6000,10674.2000,0.0000,0.0000,0.0000,
256,489.73,20419.42,-20419.42,1424.2000,65535.0000,12367.6000,10943.4000,0.0000,0.0000,0.0000,
257,490.25,20397.57,-20397.57,1424.0000,65535.0000,12406.0000,10982.0000,0.0000,0.0000,0.0000,
258,490.78,20375.79,-20375.79,1415.8000,65535.0000,12460.8000,11045.0000,0.0000,0.0000,0.0000,
259,491.30,20354.05,-20354.05,1440.2000,65535.0000,12759.2000,11319.0000,0.0000,0.0000,0.0000,
260,491.83,20332.38,-20332.38,1424.2000,65535.0000,12804.6000,11380.4000,0.0000,0.0000,0.0000,
261,492.35,20310.75,-20310.75,1423.0000,65535.0000,13054.6000,11631.6000,0.0000,0.0000,0.0000,
262,492.87,20289.19,-20289.19,1402.2000,65535.0000,13173.2000,11771.0000,0.0000,0.0000,0.0000,
263,493.40,20267.67,-20267.67,1421.8000,65535.0000,13309.0000,11887.2000,0.0000,0.0000,0.0000,
264,493.92,20246.21,-20246.21,1423.0000,65535.0000,13464.8000,12041.8000,0.0000,0.0000,0.0000,
265,494.44,20224.80,-20224.80,1415.8000,65535.0000,13743.4000,12327.6000,0.0000,0.0000,0.0000,
266,494.96,20203.45,-20203.45,1439.4000,65535.0000,13697.4000,12258.0000,0.0000,0.0000,0.0000,
267,495.49,20182.15,-20182.15,1428.0000,65535.0000,13794.2000,12366.2000,0.0000,0.0000,0.0000,
268,496.01,20160.91,-20160.91,1421.0000,65535.0000,13933.0000,12512.0000,0.0000,0.0000,0.0000,
269,496.53,20139.71,-20139.71,1431.2000,65535.0000,14169.8000,12738.6000,0.0000,0.0000,0.0000,
270,497.05,20118.57,-20118.57,1434.6000,65535.0000,14256.4000,12821.8000,0.0000,0.0000,0.0000,
271,497.57,20097.49,-20097.49,1415.2000,65535.0000,14338.8000,12923.6000,0.0000,0.0000,0.0000,
272,498.10,20076.45,-20076.45,1423.2000,65535.0000,14547.6000,13124.4000,0.0000,0.0000,0.0000,
273,498.62,20055.47,-20055.47,1415.6000,65535.0000,14542.4000,13126.8000,0.0000,0.0000,0.0000,
274,499.14,20034.54,-20034.54,1434.2000,65535.0000,14735.4000,13301.2000,0.0000,0.0000,0.0000,
275,499.66,20013.66,-20013.66,1457.4000,65535.0000,14913.4000,13456.0000,0.0000,0.0000,0.0000,
276,500.18,19992.83,-19992.83,1420.4000,65535.0000,15034.8000,13614.4000,0.0000,0.0000,0.0000,
277,500.70,19972.06,-19972.06,1426.6000,65535.0000,15079.4000,13652.8000,0.0000,0.0000,0.0000,
278,501.22,19951.34,-19951.34,1428.0000,65535.0000,15289.0000,13861.0000,0.0000,0.0000,0.0000,
279,501.74,19930.66,-19930.66,1424.6000,65535.0000,15311.0000,13886.4000,0.0000,0.0000,0.0000,
280,502.26,19910.04,-19910.04,1420.4000,65535.0000,15400.4000,13980.0000,0.0000,0.0000,0.0000,
281,502.78,19889.47,-19889.47,1420.6000,65535.0000,15775.0000,14354.4000,0.0000,0.0000,0.0000,
282,503.30,19868.95,-19868.95,1423.2000,65535.0000,15872.4000,14449.2000,0.0000,0.0000,0.0000,
283,503.82,19848.48,-19848.48,1421.4000,65535.0000,16034.8000,14613.4000,0.0000,0.0000,0.0000,
284,504.34,19828.06,-19828.06,1424.8000,65535.0000,16109.4000,14684.6000,0.0000,0.0000,0.0000,
285,504.85,19807.69,-19807.69,1408.0000,65535.0000,16168.2000,14760.2000,0.0000,0.0000,0.0000,
286,505.37,19787.38,-19787.38,1428.8000,65535.0000,16425.8000,14997.0000,0.0000,0.0000,0.0000,
287,505.89,19767.11,-19767.11,1407.2000,65535.0000,16586.2000,15179.0000,0.0000,0.0000,0.0000,
288,506.41,19746.89,-19746.89,1432.8000,65535.0000,16610.2000,15177.4000,0.0000,0.0000,0.0000,
289,506.93,19726.72,-19726.72,1424.8000,65535.0000,16838.4000,15413.6000,0.0000,0.0000,0.0000,
290,507.44,19706.59,-19706.59,1433.8000,65535.0000,17040.8000,15607.0000,0.0000,0.0000,0.0000,
291,507.96,19686.52,-19686.52,1428.2000,65535.0000,17216.6000,15788.4000,0.0000,0.0000,0.0000,
292,508.48,19666.50,-19666.50,1427.6000,65535.0000,17348.0000,15920.4000,0.0000,0.0000,0.0000,
293,509.00,19646.52,-19646.52,1423.0000,65535.0000,17616.8000,16193.8000,0.0000,0.0000,0.0000,
294,509.51,19626.60,-19626.60,1432.0000,65535.0000,17640.0000,16208.0000,0.0000,0.0000,0.0000,
295,510.03,19606.72,-19606.72,1413.0000,65535.0000,17921.4000,16508.4000,0.0000,0.0000,0.0000,
296,510.55,19586.89,-19586.89,1436.4000,65535.0000,18137.6000,16701.2000,0.0000,0.0000,0.0000,
297,511.06,19567.11,-19567.11,1421.6000,65535.0000,18352.6000,16931.0000,0.0000,0.0000,0.0000,
298,511.58,19547.38,-19547.38,1413.8000,65535.0000,18399.8000,16986.0000,0.0000,0.0000,0.0000,
299,512.09,19527.69,-19527.69,1432.4000,65535.0000,18613.0000,17180.6000,0.0000,0.0000,0.0000,
300,512.61,19508.05,-19508.05,1434.8000,65535.0000,18905.4000,17470.6000,0.0000,0.0000,0.0000,
301,513.12,19488.46,-19488.46,1453.8000,65535.0000,19052.8000,17599.0000,0.0000,0.0000,0.0000,
302,513.64,19468.92,-19468.92,1424.2000,65535.0000,19304.4000,17880.2000,0.0000,0.0000,0.0000,
303,514.15,19449.42,-19449.42,1421.4000,65535.0000,19442.4000,18021.0000,0.0000,0.0000,0.0000,
304,514.67,19429.97,-19429.97,1444.6000,65535.0000,19747.0000,18302.4000,0.0000,0.0000,0.0000,
305,515.18,19410.56,-19410.56,1423.0000,65535.0000,20033.8000,18610.8000,0.0000,0.0000,0.0000,
306,515.70,19391.21,-19391.21,1420.0000,65535.0000,20073.8000,18653.8000,0.0000,0.0000,0.0000,
307,516.21,19371.90,-19371.90,1420.2000,65535.0000,20350.2000,18930.0000,0.0000,0.0000,0.0000,
308,516.73,19352.63,-19352.63,1408.4000,65535.0000,20495.0000,19086.6000,0.0000,0.0000,0.0000,
309,517.24,19333.41,-19333.41,1433.6000,65535.0000,20508.8000,19075.2000,0.0000,0.0000,0.0000,
310,517.75,19314.24,-19314.24,1416.6000,65535.0000,20835.2000,19418.6000,0.0000,0.0000,0.0000,
311,518.27,19295.11,-19295.11,1426.2000,65535.0000,21069.6000,19643.4000,0.0000,0.0000,0.0000,
312,518.78,19276.03,-19276.03,1413.4000,65535.0000,21398.0000,19984.6000,0.0000,0.0000,0.0000,
313,519.29,19257.00,-19257.00,1418.8000,65535.0000,21424.2000,20005.4000,0.0000,0.0000,0.0000,
314,519.80,19238.01,-19238.01,1405.2000,65535.0000,21619.0000,20213.8000,0.0000,0.0000,0.0000,
315,520.32,19219.06,-19219.06,1421.4000,65535.0000,21847.2000,20425.8000,0.0000,0.0000,0.0000,
316,520.83,19200.16,-19200.16,1414.6000,65535.0000,22151.4000,20736.8000,0.0000,0.0000,0.0000,
317,521.34,19181.30,-19181.30,1407.6000,65535.0000,22316.6000,20909.0000,0.0000,0.0000,0.0000,
318,521.85,19162.49,-19162.49,1394.8000,65535.0000,22542.4000,21147.6000,0.0000,0.0000,0.0000,
319,522.36,19143.73,-19143.73,1442.0000,65535.0000,22640.6000,21198.6000,0.0000,0.0000,0.0000,
320,522.88,19125.00,-19125.00,1430.2000,65535.0000,22864.6000,21434.4000,0.0000,0.0000,0.0000,
321,523.39,19106.33,-19106.33,1428.8000,65535.0000,23042.8000,21614.0000,0.0000,0.0000,0.0000,
322,523.90,19087.69,-19087.69,1428.0000,65535.0000,23342.8000,21914.8000,0.0000,0.0000,0.0000,
323,524.41,19069.10,-19069.10,1429.8000,65535.0000,23678.0000,22248.2000,0.0000,0.0000,0.0000,
324,524.92,19050.55,-19050.55,1412.8000,65535.0000,23844.4000,22431.6000,0.0000,0.0000,0.0000,
325,525.43,19032.05,-19032.05,1444.2000,65535.0000,24120.8000,22676.6000,0.0000,0.0000,0.0000,
326,525.94,19013.59,-19013.59,1404.4000,65535.0000,24311.4000,22907.0000,0.0000,0.0000,0.0000,
327,526.45,18995.17,-18995.17,1405.6000,65535.0000,24676.0000,23270.4000,0.0000,0.0000,0.0000,
328,526.96,18976.80,-18976.80,1442.4000,65535.0000,24636.8000,23194.4000,0.0000,0.0000,0.0000,
329,527.47,18958.47,-18958.47,1454.0000,65535.0000,24896.4000,23442.4000,0.0000,0.0000,0.0000,
330,527.98,18940.18,-18940.18,1421.8000,65535.0000,25049.4000,23627.6000,0.0000,0.0000,0.0000,
331,528.49,18921.94,-18921.94,1411.6000,65535.0000,24971.2000,23559.6000,0.0000,0.0000,0.0000,
332,529.00,18903.74,-18903.74,1444.6000,65535.0000,25130.8000,23686.2000,0.0000,0.0000,0.0000,
333,529.50,18885.58,-18885.58,1421.8000,65535.0000,25388.0000,23966.2000,0.0000,0.0000,0.0000,
334,530.01,18867.46,-18867.46,1392.8000,65535.0000,25390.0000,23997.2000,0.0000,0.0000,0.0000,
335,530.52,18849.38,-18849.38,1404.0000,65535.0000,25535.4000,24131.4000,0.0000,0.0000,0.0000,
336,531.03,18831.35,-18831.35,1425.4000,65535.0000,25474.2000,24048.8000,0.0000,0.0000,0.0000,
337,531.54,18813.36,-18813.36,1414.8000,65535.0000,25760.4000,24345.6000,0.0000,0.0000,0.0000,
338,532.04,18795.41,-18795.41,1406.0000,65535.0000,25758.0000,24352.0000,0.0000,0.0000,0.0000,
339,532.55,18777.50,-18777.50,1399.6000,65535.0000,25903.6000,24504.0000,0.0000,0.0000,0.0000,
340,533.06,18759.63,-18759.63,1414.6000,65535.0000,26098.4000,24683.8000,0.0000,0.0000,0.0000,
341,533.57,18741.80,-18741.80,1421.8000,65535.0000,26122.0000,24700.2000,0.0000,0.0000,0.0000,
342,534.07,18724.02,-18724.02,1415.4000,65535.0000,26246.8000,24831.4000,0.0000,0.0000,0.0000,
343,534.58,18706.28,-18706.28,1429.8000,65535.0000,26243.6000,24813.8000,0.0000,0.0000,0.0000,
344,535.09,18688.57,-18688.57,1419.6000,65535.0000,26347.0000,24927.4000,0.0000,0.0000,0.0000,
345,535.59,18670.91,-18670.91,1413.6000,65535.0000,26756.2000,25342.6000,0.0000,0.0000,0.0000,
346,536.10,18653.29,-18653.29,1398.2000,65535.0000,26905.6000,25507.4000,0.0000,0.0000,0.0000,
347,536.60,18635.71,-18635.71,1390.0000,65535.0000,26946.0000,25556.0000,0.0000,0.0000,0.0000,
348,537.11,18618.17,-18618.17,1409.8000,65535.0000,26948.8000,25539.0000,0.0000,0.0000,0.0000,
349,537.62,18600.67,-18600.67,1418.2000,65535.0000,27131.0000,25712.8000,0.0000,0.0000,0.0000,
350,538.12,18583.21,-18583.21,1418.2000,65535.0000,27125.8000,25707.6000,0.0000,0.0000,0.0000,
351,538.63,18565.78,-18565.78,1421.4000,65535.0000,27092.2000,25670.8000,0.0000,0.0000,0.0000,
352,539.13,18548.40,-18548.40,1423.8000,65535.0000,27201.2000,25777.4000,0.0000,0.0000,0.0000,
353,539.63,18531.06,-18531.06,1388.6000,65535.0000,27296.4000,25907.8000,0.0000,0.0000,0.0000,
354,540.14,18513.76,-18513.76,1437.4000,65535.0000,27533.8000,26096.4000,0.0000,0.0000,0.0000,
355,540.64,18496.50,-18496.50,1421.6000,65535.0000,27688.4000,26266.8000,0.0000,0.0000,0.0000,
356,541.15,18479.28,-18479.28,1426.4000,65535.0000,27744.4000,26318.0000,0.0000,0.0000,0.0000,
357,541.65,18462.09,-18462.09,1426.2000,65535.0000,27802.6000,26376.4000,0.0000,0.0000,0.0000,
358,542.15,18444.95,-18444.95,1441.0000,65535.0000,28061.0000,26620.0000,0.0000,0.0000,0.0000,
359,542.66,18427.84,-18427.84,1426.8000,65535.0000,28395.4000,26968.6000,0.0000,0.0000,0.0000,
360,543.16,18410.77,-18410.77,1408.2000,65535.0000,28550.4000,27142.2000,0.0000,0.0000,0.0000,
361,543.66,18393.74,-18393.74,1436.8000,65535.0000,28630.2000,27193.4000,0.0000,0.0000,0.0000,
362,544.17,18376.75,-18376.75,1429.8000,65535.0000,28887.2000,27457.4000,0.0000,0.0000,0.0000,
363,544.67,18359.80,-18359.80,1447.2000,65535.0000,29115.0000,27667.8000,0.0000,0.0000,0.0000,
364,545.17,18342.89,-18342.89,1449.4000,65535.0000,29217.8000,27768.4000,0.0000,0.0000,0.0000,
365,545.67,18326.01,-18326.01,1436.2000,65535.0000,29044.2000,27608.0000,0.0000,0.0000,0.0000,
366,546.17,18309.17,-18309.17,1434.0000,65535.0000,29569.4000,28135.4000,0.0000,0.0000,0.0000,
367,546.68,18292.37,-18292.37,1423.0000,65535.0000,29658.0000,28235.0000,0.0000,0.0000,0.0000,
368,547.18,18275.61,-18275.61,1428.4000,65535.0000,29645.6000,28217.2000,0.0000,0.0000,0.0000,
369,547.68,18258.89,-18258.89,1432.8000,65535.0000,29791.0000,28358.2000,0.0000,0.0000,0.0000,
370,548.18,18242.20,-18242.20,1429.6000,65535.0000,29834.0000,28404.4000,0.0000,0.0000,0.0000,
371,548.68,18225.55,-18225.55,1450.6000,65535.0000,30052.4000,28601.8000,0.0000,0.0000,0.0000,
372,549.18,18208.94,-18208.94,1417.4000,65535.0000,30284.6000,28867.2000,0.0000,0.0000,0.0000,
373,549.68,18192.37,-18192.37,1444.2000,65535.0000,30300.0000,28855.8000,0.0000,0.0000,0.0000,
374,550.18,18175.83,-18175.83,1427.2000,65535.0000,30617.8000,29190.6000,0.0000,0.0000,0.0000,
375,550.68,18159.33,-18159.33,1430.4000,65535.0000,30814.6000,29384.2000,0.0000,0.0000,0.0000,
376,551.18,18142.86,-18142.86,1433.0000,65535.0000,30679.2000,29246.2000,0.0000,0.0000,0.0000,
377,551.68,18126.43,-18126.43,1399.2000,65535.0000,31048.4000,29649.2000,0.0000,0.0000,0.0000,
378,552.18,18110.04,-18110.04,1433.8000,65535.0000,31304.6000,29870.8000,0.0000,0.0000,0.0000,
379,552.68,18093.69,-18093.69,1410.2000,65535.0000,31395.4000,29985.2000,0.0000,0.0000,0.0000,
380,553.18,18077.37,-18077.37,1442.0000,65535.0000,31575.8000,30133.8000,0.0000,0.0000,0.0000,
381,553.68,18061.09,-18061.09,1423.8000,65535.0000,31658.4000,30234.6000,0.0000,0.0000,0.0000,
382,554.18,18044.84,-18044.84,1398.4000,65535.0000,31895.6000,30497.2000,0.0000,0.0000,0.0000,
383,554.67,18028.63,-18028.63,1404.8000,65535.0000,32043.2000,30638.4000,0.0000,0.0000,0.0000,
384,555.17,18012.46,-18012.46,1413.2000,65535.0000,32425.4000,31012.2000,0.0000,0.0000,0.0000,
385,555.67,17996.32,-17996.32,1390.6000,65535.0000,32550.8000,31160.2000,0.0000,0.0000,0.0000,
386,556.17,17980.22,-17980.22,1414.0000,65535.0000,32779.6000,31365.6000,0.0000,0.0000,0.0000,
387,556.66,17964.15,-17964.15,1417.6000,65535.0000,33078.4000,31660.8000,0.0000,0.0000,0.0000,
388,557.16,17948.12,-17948.12,1425.6000,65535.0000,33394.8000,31969.2000,0.0000,0.0000,0.0000,
389,557.66,17932.12,-17932.12,1424.0000,65535.0000,33538.6000,32114.6000,0.0000,0.0000,0.0000,
390,558.16,17916.16,-17916.16,1419.2000,65535.0000,33934.2000,32515.0000,0.0000,0.0000,0.0000,
391,558.65,17900.23,-17900.23,1403.0000,65535.0000,33842.8000,32439.8000,0.0000,0.0000,0.0000,
392,559.15,17884.34,-17884.34,1440.8000,65535.0000,34432.8000,32992.0000,0.0000,0.0000,0.0000,
393,559.64,17868.48,-17868.48,1418.2000,65535.0000,34597.8000,33179.6000,0.0000,0.0000,0.0000,
394,560.14,17852.66,-17852.66,1425.4000,65535.0000,34754.0000,33328.6000,0.0000,0.0000,0.0000,
395,560.64,17836.87,-17836.87,1408.2000,65535.0000,34947.4000,33539.2000,0.0000,0.0000,0.0000,
396,561.13,17821.12,-17821.12,1410.2000,65535.0000,35090.6000,33680.4000,0.0000,0.0000,0.0000,
397,561.63,17805.40,-17805.40,1411.8000,65535.0000,35433.2000,34021.4000,0.0000,0.0000,0.0000,
398,562.12,17789.72,-17789.72,1418.8000,65535.0000,35706.0000,34287.2000,0.0000,0.0000,0.0000,
399,562.62,17774.07,-17774.07,1438.4000,65535.0000,35742.6000,34304.2000,0.0000,0.0000,0.0000,
400,563.11,17758.45,-17758.45,1445.4000,65535.0000,36134.0000,34688.6000,0.0000,0.0000,0.0000,
401,563.61,17742.87,-17742.87,1408.4000,65535.0000,36270.8000,34862.4000,0.0000,0.0000,0.0000,
402,564.10,17727.32,-17727.32,1430.0000,65535.0000,36336.0000,34906.0000,0.0000,0.0000,0.0000,
403,564.60,17711.81,-17711.81,1430.8000,65535.0000,36646.6000,35215.8000,0.0000,0.0000,0.0000,
404,565.09,17696.33,-17696.33,1428.8000,65535.0000,37117.6000,35688.8000,0.0000,0.0000,0.0000,
405,565.58,17680.88,-17680.88,1436.2000,65535.0000,37579.4000,36143.2000,0.0000,0.0000,0.0000,
406,566.08,17665.47,-17665.47,1438.2000,65535.0000,37433.2000,35995.0000,0.0000,0.0000,0.0000,
407,566.57,17650.09,-17650.09,1406.4000,65535.0000,37628.8000,36222.4000,0.0000,0.0000,0.0000,
408,567.06,17634.74,-17634.74,1430.0000,65535.0000,37657.2000,36227.2000,0.0000,0.0000,0.0000,
409,567.56,17619.42,-17619.42,1432.8000,65535.0000,37598.0000,36165.2000,0.0000,0.0000,0.0000,
410,568.05,17604.14,-17604.14,1441.8000,65535.0000,37968.8000,36527.0000,0.0000,0.0000,0.0000,
411,568.54,17588.90,-17588.90,1413.8000,65535.0000,37977.6000,36563.8000,0.0000,0.0000,0.0000,
412,569.03,17573.68,-17573.68,1418.2000,65535.0000,38292.8000,36874.6000,0.0000,0.0000,0.0000,
413,569.52,17558.50,-17558.50,1397.8000,65535.0000,38167.0000,36769.2000,0.0000,0.0000,0.0000,
414,570.02,17543.35,-17543.35,1417.8000,65535.0000,38466.0000,37048.2000,0.0000,0.0000,0.0000,
415,570.51,17528.23,-17528.23,1404.0000,65535.0000,38629.0000,37225.0000,0.0000,0.0000,0.0000,
416,571.00,17513.15,-17513.15,1445.0000,65535.0000,38798.6000,37353.6000,0.0000,0.0000,0.0000,
417,571.49,17498.09,-17498.09,1409.8000,65535.0000,39162.2000,37752.4000,0.0000,0.0000,0.0000,
418,571.98,17483.07,-17483.07,1435.0000,65535.0000,39117.6000,37682.6000,0.0000,0.0000,0.0000,
419,572.47,17468.08,-17468.08,1434.6000,65535.0000,39397.4000,37962.8000,0.0000,0.0000,0.0000,
420,572.96,17453.13,-17453.13,1396.4000,65535.0000,39655.2000,38258.8000,0.0000,0.0000,0.0000,
421,573.45,17438.20,-17438.20,1427.8000,65535.0000,39514.8000,38087.0000,0.0000,0.0000,0.0000,
422,573.94,17423.31,-17423.31,1421.0000,65535.0000,39643.0000,38222.0000,0.0000,0.0000,0.0000,
423,574.43,17408.45,-17408.45,1422.8000,65535.0000,39657.8000,38235.0000,0.0000,0.0000,0.0000,
424,574.92,17393.62,-17393.62,1435.2000,65535.0000,39539.6000,38104.4000,0.0000,0.0000,0.0000,
425,575.41,17378.82,-17378.82,1426.2000,65535.0000,39774.8000,38348.6000,0.0000,0.0000,0.0000,
426,575.90,17364.06,-17364.06,1402.2000,65535.0000,39860.8000,38458.6000,0.0000,0.0000,0.0000,
427,576.39,17349.32,-17349.32,1424.6000,65535.0000,40036.6000,38612.0000,0.0000,0.0000,0.0000,
428,576.88,17334.62,-17334.62,1424.4000,65535.0000,39965.6000,38541.2000,0.0000,0.0000,0.0000,
429,577.37,17319.95,-17319.95,1430.8000,65535.0000,39825.2000,38394.4000,0.0000,0.0000,0.0000,
430,577.86,17305.31,-17305.31,1429.2000,65535.0000,40114.0000,38684.8000,0.0000,0.0000,0.0000,
431,578.35,17290.70,-17290.70,1414.6000,65535.0000,39985.8000,38571.2000,0.0000,0.0000,0.0000,
432,578.83,17276.12,-17276.12,1427.0000,65535.0000,40285.2000,38858.2000,0.0000,0.0000,0.0000,
433,579.32,17261.57,-17261.57,1403.4000,65535.0000,40755.8000,39352.4000,0.0000,0.0000,0.0000,
434,579.81,17247.05,-17247.05,1438.6000,65535.0000,40723.6000,39285.0000,0.0000,0.0000,0.0000,
435,580.30,17232.56,-17232.56,1416.8000,65535.0000,40993.6000,39576.8000,0.0000,0.0000,0.0000,
436,580.78,17218.10,-17218.10,1440.8000,65535.0000,40879.2000,39438.4000,0.0000,0.0000,0.0000,
437,581.27,17203.68,-17203.68,1399.4000,65535.0000,41021.4000,39622.0000,0.0000,0.0000,0.0000,
438,581.76,17189.28,-17189.28,1391.2000,65535.0000,40855.8000,39464.6000,0.0000,0.0000,0.0000,
439,582.24,17174.92,-17174.92,1435.0000,65535.0000,40918.0000,39483.0000,0.0000,0.0000,0.0000,
440,582.73,17160.58,-17160.58,1426.8000,65535.0000,41196.2000,39769.4000,0.0000,0.0000,0.0000,
441,583.22,17146.27,-17146.27,1429.0000,65535.0000,41247.4000,39818.4000,0.0000,0.0000,0.0000,
442,583.70,17132.00,-17132.00,1406.4000,65535.0000,41251.8000,39845.4000,0.0000,0.0000,0.0000,
443,584.19,17117.75,-17117.75,1422.0000,65535.0000,41260.8000,39838.8000,0.0000,0.0000,0.0000,
444,584.67,17103.54,-17103.54,1424.8000,65535.0000,41573.0000,40148.2000,0.0000,0.0000,0.0000,
445,585.16,17089.35,-17089.35,1426.0000,65535.0000,41452.8000,40026.8000,0.0000,0.0000,0.0000,
446,585.64,17075.19,-17075.19,1425.8000,65535.0000,41415.2000,39989.4000,0.0000,0.0000,0.0000,
447,586.13,17061.07,-17061.07,1435.8000,65535.0000,41549.0000,40113.2000,0.0000,0.0000,0.0000,
448,586.61,17046.97,-17046.97,1422.6000,65535.0000,41518.4000,40095.8000,0.0000,0.0000,0.0000,
449,587.10,17032.90,-17032.90,1436.8000,65535.0000,42013.8000,40577.0000,0.0000,0.0000,0.0000,
450,587.58,17018.86,-17018.86,1429.8000,65535.0000,42065.6000,40635.8000,0.0000,0.0000,0.0000,
451,588.07,17004.85,-17004.85,1414.0000,65535.0000,42007.4000,40593.4000,0.0000,0.0000,0.0000,
452,588.55,16990.87,-16990.87,1410.6000,65535.0000,42155.2000,40744.6000,0.0000,0.0000,0.0000,
453,589.04,16976.92,-16976.92,1404.6000,65535.0000,42373.4000,40968.8000,0.0000,0.0000,0.0000,
454,589.52,16962.99,-16962.99,1415.6000,65535.0000,42570.4000,41154.8000,0.0000,0.0000,0.0000,
455,590.00,16949.10,-16949.10,1424.6000,65535.0000,42609.4000,41184.8000,0.0000,0.0000,0.0000,
456,590.48,16935.23,-16935.23,1418.8000,65535.0000,42442.0000,41023.2000,0.0000,0.0000,0.0000,
457,590.97,16921.40,-16921.40,1406.4000,65535.0000,42655.0000,41248.6000,0.0000,0.0000,0.0000,
458,591.45,16907.59,-16907.59,1403.2000,65535.0000,42656.0000,41252.8000,0.0000,0.0000,0.0000,
459,591.93,16893.81,-16893.81,1403.2000,65535.0000,42824.6000,41421.4000,0.0000,0.0000,0.0000,
460,592.42,16880.06,-16880.06,1431.8000,65535.0000,42974.6000,41542.8000,0.0000,0.0000,0.0000,
461,592.90,16866.33,-16866.33,1456.6000,65535.0000,42917.0000,41460.4000,0.0000,0.0000,0.0000,
462,593.38,16852.64,-16852.64,1407.4000,65535.0000,42871.2000,41463.8000,0.0000,0.0000,0.0000,
463,593.86,16838.97,-16838.97,1413.2000,65535.0000,43216.6000,41803.4000,0.0000,0.0000,0.0000,
464,594.34,16825.33,-16825.33,1430.2000,65535.0000,43267.8000,41837.6000,0.0000,0.0000,0.0000,
465,594.82,16811.72,-16811.72,1392.6000,65535.0000,43233.0000,41840.4000,0.0000,0.0000,0.0000,
466,595.30,16798.14,-16798.14,1406.6000,65535.0000,43797.6000,42391.0000,0.0000,0.0000,0.0000,
467,595.78,16784.58,-16784.58,1424.8000,65535.0000,43705.2000,42280.4000,0.0000,0.0000,0.0000,
468,596.27,16771.05,-16771.05,1403.8000,65535.0000,43914.6000,42510.8000,0.0000,0.0000,0.0000,
469,596.75,16757.55,-16757.55,1407.4000,65535.0000,44017.0000,42609.6000,0.0000,0.0000,0.0000,
470,597.23,16744.08,-16744.08,1410.6000,65535.0000,43959.2000,42548.6000,0.0000,0.0000,0.0000,
471,597.71,16730.64,-16730.64,1425.0000,65535.0000,43984.0000,42559.0000,0.0000,0.0000,0.0000,
472,598.19,16717.22,-16717.22,1386.6000,65535.0000,44481.4000,43094.8000,0.0000,0.0000,0.0000,
473,598.67,16703.83,-16703.83,1394.4000,65535.0000,44523.8000,43129.4000,0.0000,0.0000,0.0000,
474,599.14,16690.47,-16690.47,1403.2000,65535.0000,44855.2000,43452.0000,0.0000,0.0000,0.0000,
475,599.62,16677.13,-16677.13,1419.0000,65535.0000,44956.6000,43537.6000,0.0000,0.0000,0.0000,
476,600.10,16663.82,-16663.82,1411.0000,65535.0000,45355.2000,43944.2000,0.0000,0.0000,0.0000,
477,600.58,16650.54,-16650.54,1433.2000,65535.0000,45323.4000,43890.2000,0.0000,0.0000,0.0000,
478,601.06,16637.29,-16637.29,1389.2000,65535.0000,45046.6000,43657.4000,0.0000,0.0000,0.0000,
479,601.54,16624.06,-16624.06,1408.4000,65535.0000,45177.6000,43769.2000,0.0000,0.0000,0.0000,
480,602.02,16610.86,-16610.86,1414.6000,65535.0000,45367.2000,43952.6000,0.0000,0.0000,0.0000,
481,602.49,16597.68,-16597.68,1405.8000,65535.0000,45645.0000,44239.2000,0.0000,0.0000,0.0000,
482,602.97,16584.54,-16584.54,1418.0000,65535.0000,46073.4000,44655.4000,0.0000,0.0000,0.0000,
483,603.45,16571.42,-16571.42,1418.2000,65535.0000,46355.2000,44937.0000,0.0000,0.0000,0.0000,
484,603.93,16558.32,-16558.32,1424.6000,65535.0000,46547.6000,45123.0000,0.0000,0.0000,0.0000,
485,604.40,16545.25,-16545.25,1423.8000,65535.0000,46147.0000,44723.2000,0.0000,0.0000,0.0000,
486,604.88,16532.21,-16532.21,1429.6000,65535.0000,46387.6000,44958.0000,0.0000,0.0000,0.0000,
487,605.36,16519.20,-16519.20,1429.8000,65535.0000,46573.2000,45143.4000,0.0000,0.0000,0.0000,
488,605.83,16506.21,-16506.21,1402.8000,65535.0000,46943.4000,45540.6000,0.0000,0.0000,0.0000,
489,606.31,16493.24,-16493.24,1432.8000,65535.0000,47021.0000,45588.2000,0.0000,0.0000,0.0000,
490,606.78,16480.31,-16480.31,1425.4000,65535.0000,46727.0000,45301.6000,0.0000,0.0000,0.0000,
491,607.26,16467.39,-16467.39,1423.2000,65535.0000,47104.2000,45681.0000,0.0000,0.0000,0.0000,
492,607.74,16454.51,-16454.51,1407.8000,65535.0000,47312.8000,45905.0000,0.0000,0.0000,0.0000,
493,608.21,16441.65,-16441.65,1428.2000,65535.0000,47385.6000,45957.4000,0.0000,0.0000,0.0000,
494,608.69,16428.82,-16428.82,1415.2000,65535.0000,47129.8000,45714.6000,0.0000,0.0000,0.0000,
495,609.16,16416.01,-16416.01,1416.0000,65535.0000,47446.6000,46030.6000,0.0000,0.0000,0.0000,
496,609.64,16403.22,-16403.22,1400.8000,65535.0000,47830.6000,46429.8000,0.0000,0.0000,0.0000,
497,610.11,16390.47,-16390.47,1398.6000,65535.0000,48066.8000,46668.2000,0.0000,0.0000,0.0000,
498,610.59,16377.73,-16377.73,1421.4000,65535.0000,48144.2000,46722.8000,0.0000,0.0000,0.0000,
499,611.06,16365.03,-16365.03,1433.2000,65535.0000,48010.0000,46576.8000,0.0000,0.0000,0.0000,
500,611.53,16352.35,-16352.35,1432.6000,65535.0000,47736.4000,46303.8000,0.0000,0.0000,0.0000,
501,612.01,16339.69,-16339.69,1428.8000,65535.0000,48145.2000,46716.4000,0.0000,0.0000,0.0000,
502,612.48,16327.06,-16327.06,1451.2000,65535.0000,48492.4000,47041.2000,0.0000,0.0000,0.0000,
503,612.95,16314.46,-16314.46,1446.8000,65535.0000,48597.6000,47150.8000,0.0000,0.0000,0.0000,
504,613.43,16301.87,-16301.87,1454.8000,65535.0000,48610.8000,47156.0000,0.0000,0.0000,0.0000,
505,613.90,16289.32,-16289.32,1427.0000,65535.0000,48563.6000,47136.6000,0.0000,0.0000,0.0000,
506,614.37,16276.79,-16276.79,1441.8000,65535.0000,49352.0000,47910.2000,0.0000,0.0000,0.0000,
507,614.84,16264.28,-16264.28,1432.8000,65535.0000,48838.6000,47405.8000,0.0000,0.0000,0.0000,
508,615.32,16251.80,-16251.80,1424.2000,65535.0000,48947.8000,47523.6000,0.0000,0.0000,0.0000,
509,615.79,16239.34,-16239.34,1449.0000,65535.0000,48931.8000,47482.8000,0.0000,0.0000,0.0000,
510,616.26,16226.91,-16226.91,1411.6000,65535.0000,48816.2000,47404.6000,0.0000,0.0000,0.0000,
511,616.73,16214.50,-16214.50,1421.2000,65535.0000,48759.0000,47337.8000,0.0000,0.0000,0.0000,
512,617.20,16202.12,-16202.12,1432.6000,65535.0000,48770.0000,47337.4000,0.0000,0.0000,0.0000,
513,617.67,16189.76,-16189.76,1456.2000,65535.0000,48802.6000,47346.4000,0.0000,0.0000,0.0000,
514,618.15,16177.43,-16177.43,1428.6000,65535.0000,49237.2000,47808.6000,0.0000,0.0000,0.0000,
515,618.62,16165.12,-16165.12,1427.4000,65535.0000,48709.8000,47282.4000,0.0000,0.0000,0.0000,
516,619.09,16152.83,-16152.83,1446.8000,65535.0000,49141.4000,47694.6000,0.0000,0.0000,0.0000,
517,619.56,16140.57,-16140.57,1437.4000,65535.0000,49132.8000,47695.4000,0.0000,0.0000,0.0000,
518,620.03,16128.33,-16128.33,1402.6000,65535.0000,49201.0000,47798.4000,0.0000,0.0000,0.0000,
519,620.50,16116.12,-16116.12,1412.0000,65535.0000,49435.8000,48023.8000,0.0000,0.0000,0.0000,
520,620.97,16103.93,-16103.93,1408.0000,65535.0000,49213.8000,47805.8000,0.0000,0.0000,0.0000,
521,621.44,16091.76,-16091.76,1426.0000,65535.0000,49309.8000,47883.8000,0.0000,0.0000,0.0000,
522,621.91,16079.62,-16079.62,1423.2000,65535.0000,49415.8000,47992.6000,0.0000,0.0000,0.0000,
523,622.37,16067.50,-16067.50,1423.0000,65535.0000,49528.8000,48105.8000,0.0000,0.0000,0.0000,
524,622.84,16055.41,-16055.41,1436.4000,65535.0000,49485.2000,48048.8000,0.0000,0.0000,0.0000,
525,623.31,16043.33,-16043.33,1426.2000,65535.0000,49328.6000,47902.4000,0.0000,0.0000,0.0000,
526,623.78,16031.29,-16031.29,1428.6000,65535.0000,49305.2000,47876.6000,0.0000,0.0000,0.0000,
527,624.25,16019.26,-16019.26,1443.6000,65535.0000,49124.4000,47680.8000,0.0000,0.0000,0.0000,
528,624.72,16007.26,-16007.26,1428.8000,65535.0000,49055.8000,47627.0000,0.0000,0.0000,0.0000,
529,625.18,15995.28,-15995.28,1415.6000,65535.0000,49129.2000,47713.6000,0.0000,0.0000,0.0000,
530,625.65,15983.33,-15983.33,1419.0000,65535.0000,48711.4000,47292.4000,0.0000,0.0000,0.0000,
531,626.12,15971.40,-15971.40,1393.0000,65535.0000,48854.8000,47461.8000,0.0000,0.0000,0.0000,
532,626.59,15959.49,-15959.49,1413.4000,65535.0000,49177.6000,47764.2000,0.0000,0.0000,0.0000,
533,627.05,15947.60,-15947.60,1431.2000,65535.0000,49167.2000,47736.0000,0.0000,0.0000,0.0000,
534,627.52,15935.74,-15935.74,1406.6000,65535.0000,48836.0000,47429.4000,0.0000,0.0000,0.0000,
535,627.99,15923.90,-15923.90,1427.6000,65535.0000,48861.6000,47434.0000,0.0000,0.0000,0.0000,
536,628.45,15912.09,-15912.09,1428.8000,65535.0000,48397.2000,46968.4000,0.0000,0.0000,0.0000,
537,628.92,15900.29,-15900.29,1424.8000,65535.0000,48409.6000,46984.8000,0.0000,0.0000,0.0000,
538,629.39,15888.52,-15888.52,1428.2000,65535.0000,48458.4000,47030.2000,0.0000,0.0000,0.0000,
539,629.85,15876.78,-15876.78,1426.8000,65535.0000,48476.0000,47049.2000,0.0000,0.0000,0.0000,
540,630.32,15865.05,-15865.05,1443.2000,65535.0000,48542.2000,47099.0000,0.0000,0.0000,0.0000,
541,630.78,15853.35,-15853.35,1387.6000,65535.0000,48288.6000,46901.0000,0.0000,0.0000,0.0000,
542,631.25,15841.67,-15841.67,1407.4000,65535.0000,48015.2000,46607.8000,0.0000,0.0000,0.0000,
543,631.71,15830.01,-15830.01,1395.8000,65535.0000,48203.8000,46808.0000,0.0000,0.0000,0.0000,
544,632.18,15818.37,-15818.37,1444.4000,65535.0000,48297.2000,46852.8000,0.0000,0.0000,0.0000,
545,632.64,15806.76,-15806.76,1399.2000,65535.0000,48216.8000,46817.6000,0.0000,0.0000,0.0000,
546,633.10,15795.17,-15795.17,1408.0000,65535.0000,48512.0000,47104.0000,0.0000,0.0000,0.0000,
547,633.57,15783.60,-15783.60,1428.6000,65535.0000,48566.6000,47138.0000,0.0000,0.0000,0.0000,
548,634.03,15772.06,-15772.06,1408.6000,65535.0000,48424.2000,47015.6000,0.0000,0.0000,0.0000,
549,634.50,15760.53,-15760.53,1427.4000,65535.0000,48382.8000,46955.4000,0.0000,0.0000,0.0000,
550,634.96,15749.03,-15749.03,1408.0000,65535.0000,48697.6000,47289.6000,0.0000,0.0000,0.0000,
551,635.42,15737.55,-15737.55,1438.0000,65535.0000,48591.6000,47153.6000,0.0000,0.0000,0.0000,
552,635.89,15726.09,-15726.09,1408.8000,65535.0000,48258.0000,46849.2000,0.0000,0.0000,0.0000,
553,636.35,15714.65,-15714.65,1400.4000,65535.0000,48065.4000,46665.0000,0.0000,0.0000,0.0000,
554,636.81,15703.24,-15703.24,1406.0000,65535.0000,47663.8000,46257.8000,0.0000,0.0000,0.0000,
555,637.27,15691.85,-15691.85,1411.0000,65535.0000,47667.0000,46256.0000,0.0000,0.0000,0.0000,
556,637.74,15680.47,-15680.47,1406.8000,65535.0000,47621.6000,46214.8000,0.0000,0.0000,0.0000,
557,638.20,15669.12,-15669.12,1383.4000,65535.0000,47730.6000,46347.2000,0.0000,0.0000,0.0000,
558,638.66,15657.80,-15657.80,1414.0000,65535.0000,47505.4000,46091.4000,0.0000,0.0000,0.0000,
559,639.12,15646.49,-15646.49,1405.2000,65535.0000,47490.8000,46085.6000,0.0000,0.0000,0.0000,
560,639.58,15635.20,-15635.20,1394.4000,65535.0000,47389.6000,45995.2000,0.0000,0.0000,0.0000,
561,640.04,15623.94,-15623.94,1405.6000,65535.0000,47800.2000,46394.6000,0.0000,0.0000,0.0000,
562,640.50,15612.70,-15612.70,1427.2000,65535.0000,47790.4000,46363.2000,0.0000,0.0000,0.0000,
563,640.97,15601.48,-15601.48,1422.8000,65535.0000,47490.8000,46068.0000,0.0000,0.0000,0.0000,
564,641.43,15590.28,-15590.28,1428.0000,65535.0000,47634.4000,46206.4000,0.0000,0.0000,0.0000,
565,641.89,15579.10,-15579.10,1397.2000,65535.0000,47566.4000,46169.2000,0.0000,0.0000,0.0000,
566,642.35,15567.94,-15567.94,1406.6000,65535.0000,47717.8000,46311.2000,0.0000,0.0000,0.0000,
567,642.81,15556.80,-15556.80,1423.8000,65535.0000,47678.2000,46254.4000,0.0000,0.0000,0.0000,
568,643.27,15545.69,-15545.69,1420.4000,65535.0000,47758.2000,46337.8000,0.0000,0.0000,0.0000,
569,643.72,15534.59,-15534.59,1433.6000,65535.0000,47833.4000,46399.8000,0.0000,0.0000,0.0000,
570,644.18,15523.52,-15523.52,1418.6000,65535.0000,47805.2000,46386.6000,0.0000,0.0000,0.0000,
571,644.64,15512.46,-15512.46,1434.6000,65535.0000,47605.6000,46171.0000,0.0000,0.0000,0.0000,
572,645.10,15501.43,-15501.43,1435.0000,65535.0000,47989.0000,46554.0000,0.0000,0.0000,0.0000,
573,645.56,15490.42,-15490.42,1426.2000,65535.0000,47848.0000,46421.8000,0.0000,0.0000,0.0000,
574,646.02,15479.43,-15479.43,1423.6000,65535.0000,48140.6000,46717.0000,0.0000,0.0000,0.0000,
575,646.48,15468.46,-15468.46,1406.6000,65535.0000,48031.0000,46624.4000,0.0000,0.0000,0.0000,
576,646.93,15457.51,-15457.51,1417.4000,65535.0000,47995.4000,46578.0000,0.0000,0.0000,0.0000,
577,647.39,15446.58,-15446.58,1417.0000,65535.0000,47812.0000,46395.0000,0.0000,0.0000,0.0000,
578,647.85,15435.67,-15435.67,1390.6000,65535.0000,47669.6000,46279.0000,0.0000,0.0000,0.0000,
579,648.31,15424.78,-15424.78,1387.2000,65535.0000,47767.2000,46380.0000,0.0000,0.0000,0.0000,
580,648.76,15413.91,-15413.91,1403.2000,65535.0000,47568.0000,46164.8000,0.0000,0.0000,0.0000,
581,649.22,15403.07,-15403.07,1403.6000,65535.0000,47794.2000,46390.6000,0.0000,0.0000,0.0000,
582,649.68,15392.24,-15392.24,1400.6000,65535.0000,48097.4000,46696.8000,0.0000,0.0000,0.0000,
583,650.13,15381.43,-15381.43,1395.6000,65535.0000,48153.4000,46757.8000,0.0000,0.0000,0.0000,
584,650.59,15370.64,-15370.64,1419.8000,65535.0000,48303.8000,46884.0000,0.0000,0.0000,0.0000,
585,651.05,15359.88,-15359.88,1424.4000,65535.0000,48208.6000,46784.2000,0.0000,0.0000,0.0000,
586,651.50,15349.13,-15349.13,1407.0000,65535.0000,48434.4000,47027.4000,0.0000,0.0000,0.0000,
587,651.96,15338.40,-15338.40,1403.0000,65535.0000,48028.2000,46625.2000,0.0000,0.0000,0.0000,
588,652.41,15327.69,-15327.69,1416.0000,65535.0000,47868.2000,46452.2000,0.0000,0.0000,0.0000,
589,652.87,15317.01,-15317.01,1431.0000,65535.0000,47898.8000,46467.8000,0.0000,0.0000,0.0000,
590,653.32,15306.34,-15306.34,1429.0000,65535.0000,48076.8000,46647.8000,0.0000,0.0000,0.0000,
591,653.78,15295.69,-15295.69,1423.6000,65535.0000,47753.8000,46330.2000,0.0000,0.0000,0.0000,
592,654.23,15285.06,-15285.06,1395.4000,65535.0000,48212.2000,46816.8000,0.0000,0.0000,0.0000,
593,654.69,15274.45,-15274.45,1434.4000,65535.0000,48136.0000,46701.6000,0.0000,0.0000,0.0000,
594,655.14,15263.86,-15263.86,1416.4000,65535.0000,48114.6000,46698.2000,0.0000,0.0000,0.0000,
595,655.60,15253.29,-15253.29,1424.2000,65535.0000,48190.8000,46766.6000,0.0000,0.0000,0.0000,
596,656.05,15242.74,-15242.74,1440.8000,65535.0000,48252.6000,46811.8000,0.0000,0.0000,0.0000,
597,656.50,15232.21,-15232.21,1439.2000,65535.0000,48284.4000,46845.2000,0.0000,0.0000,0.0000,
598,656.96,15221.70,-15221.70,1405.6000,65535.0000,48380.8000,46975.2000,0.0000,0.0000,0.0000,
599,657.41,15211.21,-15211.21,1410.2000,65535.0000,48618.8000,47208.6000,0.0000,0.0000,0.0000,
600,657.86,15200.74,-15200.74,1414.6000,65535.0000,48757.2000,47342.6000,0.0000,0.0000,0.0000,
601,658.32,15190.29,-15190.29,1416.6000,65535.0000,48665.8000,47249.2000,0.0000,0.0000,0.0000,
602,658.77,15179.85,-15179.85,1411.4000,65535.0000,48933.2000,47521.8000,0.0000,0.0000,0.0000,
603,659.22,15169.44,-15169.44,1427.4000,65535.0000,48643.2000,47215.8000,0.0000,0.0000,0.0000,
604,659.67,15159.04,-15159.04,1424.2000,65535.0000,48916.6000,47492.4000,0.0000,0.0000,0.0000,
605,660.12,15148.66,-15148.66,1409.2000,65535.0000,48731.8000,47322.6000,0.0000,0.0000,0.0000,
606,660.58,15138.31,-15138.31,1408.2000,65535.0000,48518.6000,47110.4000,0.0000,0.0000,0.0000,
607,661.03,15127.97,-15127.97,1407.4000,65535.0000,48759.8000,47352.4000,0.0000,0.0000,0.0000,
608,661.48,15117.65,-15117.65,1435.8000,65535.0000,48306.6000,46870.8000,0.0000,0.0000,0.0000,
609,661.93,15107.35,-15107.35,1417.6000,65535.0000,48796.6000,47379.0000,0.0000,0.0000,0.0000,
610,662.38,15097.07,-15097.07,1417.8000,65535.0000,48650.4000,47232.6000,0.0000,0.0000,0.0000,
611,662.83,15086.80,-15086.80,1412.6000,65535.0000,48679.6000,47267.0000,0.0000,0.0000,0.0000,
612,663.28,15076.56,-15076.56,1398.8000,65535.0000,48729.4000,47330.6000,0.0000,0.0000,0.0000,
613,663.73,15066.33,-15066.33,1421.8000,65535.0000,48855.4000,47433.6000,0.0000,0.0000,0.0000,
614,664.18,15056.12,-15056.12,1404.4000,65535.0000,48927.2000,47522.8000,0.0000,0.0000,0.0000,
615,664.63,15045.93,-15045.93,1412.8000,65535.0000,48888.8000,47476.0000,0.0000,0.0000,0.0000,
616,665.08,15035.76,-15035.76,1402.2000,65535.0000,49138.0000,47735.8000,0.0000,0.0000,0.0000,
617,665.53,15025.61,-15025.61,1419.8000,65535.0000,49312.4000,47892.6000,0.0000,0.0000,0.0000,
618,665.98,15015.48,-15015.48,1427.2000,65535.0000,48894.2000,47467.0000,0.0000,0.0000,0.0000,
619,666.43,15005.36,-15005.36,1416.6000,65535.0000,49382.6000,47966.0000,0.0000,0.0000,0.0000,
620,666.88,14995.27,-14995.27,1424.2000,65535.0000,49502.8000,48078.6000,0.0000,0.0000,0.0000,
621,667.33,14985.19,-14985.19,1393.6000,65535.0000,49568.0000,48174.4000,0.0000,0.0000,0.0000,
622,667.77,14975.13,-14975.13,1407.6000,65535.0000,49359.2000,47951.6000,0.0000,0.0000,0.0000,
623,668.22,14965.09,-14965.09,1392.0000,65535.0000,48685.6000,47293.6000,0.0000,0.0000,0.0000,
624,668.67,14955.06,-14955.06,1401.4000,65535.0000,48895.6000,47494.2000,0.0000,0.0000,0.0000,
625,669.12,14945.06,-14945.06,1404.8000,65535.0000,48913.4000,47508.6000,0.0000,0.0000,0.0000,
626,669.56,14935.07,-14935.07,1442.0000,65535.0000,49045.4000,47603.4000,0.0000,0.0000,0.0000,
627,670.01,14925.10,-14925.10,1393.8000,65535.0000,49177.2000,47783.4000,0.0000,0.0000,0.0000,
628,670.46,14915.15,-14915.15,1417.0000,65535.0000,49253.4000,47836.4000,0.0000,0.0000,0.0000,
629,670.91,14905.22,-14905.22,1410.2000,65535.0000,49176.0000,47765.8000,0.0000,0.0000,0.0000,
630,671.35,14895.30,-14895.30,1442.6000,65535.0000,48794.8000,47352.2000,0.0000,0.0000,0.0000,
631,671.80,14885.40,-14885.40,1427.8000,65535.0000,48422.2000,46994.4000,0.0000,0.0000,0.0000,
632,672.25,14875.52,-14875.52,1394.4000,65535.0000,48430.8000,47036.4000,0.0000,0.0000,0.0000,
633,672.69,14865.66,-14865.66,1414.6000,65535.0000,48607.6000,47193.0000,0.0000,0.0000,0.0000,
634,673.14,14855.82,-14855.82,1418.2000,65535.0000,48875.0000,47456.8000,0.0000,0.0000,0.0000,
635,673.58,14845.99,-14845.99,1420.0000,65535.0000,49187.8000,47767.8000,0.0000,0.0000,0.0000,
636,674.03,14836.18,-14836.18,1406.4000,65535.0000,48608.2000,47201.8000,0.0000,0.0000,0.0000,
637,674.47,14826.39,-14826.39,1423.0000,65535.0000,48430.8000,47007.8000,0.0000,0.0000,0.0000,
638,674.92,14816.61,-14816.61,1435.0000,65535.0000,48070.6000,46635.6000,0.0000,0.0000,0.0000,
639,675.36,14806.86,-14806.86,1429.8000,65535.0000,48336.4000,46906.6000,0.0000,0.0000,0.0000,
640,675.81,14797.12,-14797.12,1412.6000,65535.0000,48355.4000,46942.8000,0.0000,0.0000,0.0000,
641,676.25,14787.40,-14787.40,1415.4000,65535.0000,48492.4000,47077.0000,0.0000,0.0000,0.0000,
642,676.70,14777.69,-14777.69,1424.4000,65535.0000,48766.4000,47342.0000,0.0000,0.0000,0.0000,
643,677.14,14768.01,-14768.01,1419.2000,65535.0000,48524.4000,47105.2000,0.0000,0.0000,0.0000,
644,677.58,14758.34,-14758.34,1429.0000,65535.0000,48150.8000,46721.8000,0.0000,0.0000,0.0000,
645,678.03,14748.68,-14748.68,1414.0000,65535.0000,48205.0000,46791.0000,0.0000,0.0000,0.0000,
646,678.47,14739.05,-14739.05,1417.8000,65535.0000,48066.0000,46648.2000,0.0000,0.0000,0.0000,
647,678.91,14729.43,-14729.43,1389.0000,65535.0000,47277.2000,45888.2000,0.0000,0.0000,0.0000,
648,679.36,14719.83,-14719.83,1395.6000,65535.0000,47262.2000,45866.6000,0.0000,0.0000,0.0000,
649,679.80,14710.24,-14710.24,1447.0000,65535.0000,47774.2000,46327.2000,0.0000,0.0000,0.0000,
650,680.24,14700.68,-14700.68,1404.8000,65535.0000,47718.6000,46313.8000,0.0000,0.0000,0.0000,
651,680.68,14691.13,-14691.13,1402.2000,65535.0000,47861.8000,46459.6000,0.0000,0.0000,0.0000,
652,681.12,14681.59,-14681.59,1406.0000,65535.0000,47729.6000,46323.6000,0.0000,0.0000,0.0000,
653,681.57,14672.08,-14672.08,1407.2000,65535.0000,47434.6000,46027.4000,0.0000,0.0000,0.0000,
654,682.01,14662.58,-14662.58,1418.0000,65535.0000,47212.6000,45794.6000,0.0000,0.0000,0.0000,
655,682.45,14653.09,-14653.09,1412.6000,65535.0000,47007.4000,45594.8000,0.0000,0.0000,0.0000,
656,682.89,14643.63,-14643.63,1396.2000,65535.0000,47031.4000,45635.2000,0.0000,0.0000,0.0000,
657,683.33,14634.18,-14634.18,1410.8000,65535.0000,47025.8000,45615.0000,0.0000,0.0000,0.0000,
658,683.77,14624.75,-14624.75,1421.2000,65535.0000,46864.0000,45442.8000,0.0000,0.0000,0.0000,
659,684.21,14615.33,-14615.33,1419.0000,65535.0000,46423.8000,45004.8000,0.0000,0.0000,0.0000,
660,684.65,14605.93,-14605.93,1399.2000,65535.0000,46366.0000,44966.8000,0.0000,0.0000,0.0000,
661,685.09,14596.55,-14596.55,1395.4000,65535.0000,46256.0000,44860.6000,0.0000,0.0000,0.0000,
662,685.53,14587.18,-14587.18,1415.4000,65535.0000,46104.6000,44689.2000,0.0000,0.0000,0.0000,
663,685.97,14577.83,-14577.83,1419.6000,65535.0000,46155.0000,44735.4000,0.0000,0.0000,0.0000,
664,686.41,14568.50,-14568.50,1407.4000,65535.0000,46385.6000,44978.2000,0.0000,0.0000,0.0000,
665,686.85,14559.18,-14559.18,1418.6000,65535.0000,46432.0000,45013.4000,0.0000,0.0000,0.0000,
666,687.29,14549.88,-14549.88,1430.8000,65535.0000,46313.0000,44882.2000,0.0000,0.0000,0.0000,
667,687.73,14540.60,-14540.60,1425.2000,65535.0000,45841.2000,44416.0000,0.0000,0.0000,0.0000,
668,688.17,14531.33,-14531.33,1400.4000,65535.0000,45909.8000,44509.4000,0.0000,0.0000,0.0000,
669,688.61,14522.08,-14522.08,1410.6000,65535.0000,45785.8000,44375.2000,0.0000,0.0000,0.0000,
670,689.04,14512.84,-14512.84,1407.0000,65535.0000,45004.0000,43597.0000,0.0000,0.0000,0.0000,
671,689.48,14503.63,-14503.63,1408.6000,65535.0000,44767.6000,43359.0000,0.0000,0.0000,0.0000,
672,689.92,14494.42,-14494.42,1415.4000,65535.0000,44680.0000,43264.6000,0.0000,0.0000,0.0000,
673,690.36,14485.24,-14485.24,1406.2000,65535.0000,44992.4000,43586.2000,0.0000,0.0000,0.0000,
674,690.80,14476.06,-14476.06,1418.8000,65535.0000,44503.0000,43084.2000,0.0000,0.0000,0.0000,
675,691.23,14466.91,-14466.91,1414.4000,65535.0000,44600.6000,43186.2000,0.0000,0.0000,0.0000,
676,691.67,14457.77,-14457.77,1402.0000,65535.0000,44496.2000,43094.2000,0.0000,0.0000,0.0000,
677,692.11,14448.65,-14448.65,1408.0000,65535.0000,44243.8000,42835.8000,0.0000,0.0000,0.0000,
678,692.54,14439.54,-14439.54,1412.8000,65535.0000,44204.2000,42791.4000,0.0000,0.0000,0.0000,
679,692.98,14430.45,-14430.45,1416.0000,65535.0000,44454.8000,43038.8000,0.0000,0.0000,0.0000,
680,693.42,14421.37,-14421.37,1395.8000,65535.0000,44273.6000,42877.8000,0.0000,0.0000,0.0000,
681,693.85,14412.31,-14412.31,1383.8000,65535.0000,44241.4000,42857.6000,0.0000,0.0000,0.0000,
682,694.29,14403.27,-14403.27,1384.4000,65535.0000,44114.4000,42730.0000,0.0000,0.0000,0.0000,
683,694.72,14394.24,-14394.24,1427.4000,65535.0000,44429.4000,43002.0000,0.0000,0.0000,0.0000,
684,695.16,14385.23,-14385.23,1427.0000,65535.0000,43808.0000,42381.0000,0.0000,0.0000,0.0000,
685,695.59,14376.23,-14376.23,1408.2000,65535.0000,43456.0000,42047.8000,0.0000,0.0000,0.0000,
686,696.03,14367.25,-14367.25,1381.0000,65535.0000,43525.0000,42144.0000,0.0000,0.0000,0.0000,
687,696.46,14358.29,-14358.29,1417.8000,65535.0000,43460.4000,42042.6000,0.0000,0.0000,0.0000,
688,696.90,14349.34,-14349.34,1391.8000,65535.0000,43367.8000,41976.0000,0.0000,0.0000,0.0000,
689,697.33,14340.40,-14340.40,1406.0000,65535.0000,43537.6000,42131.6000,0.0000,0.0000,0.0000,
690,697.76,14331.48,-14331.48,1382.2000,65535.0000,43298.0000,41915.8000,0.0000,0.0000,0.0000,
691,698.20,14322.58,-14322.58,1436.6000,65535.0000,43319.6000,41883.0000,0.0000,0.0000,0.0000,
692,698.63,14313.69,-14313.69,1409.8000,65535.0000,43015.0000,41605.2000,0.0000,0.0000,0.0000,
693,699.07,14304.82,-14304.82,1416.2000,65535.0000,42874.6000,41458.4000,0.0000,0.0000,0.0000,
694,699.50,14295.96,-14295.96,1401.4000,65535.0000,43001.4000,41600.0000,0.0000,0.0000,0.0000,
695,699.93,14287.12,-14287.12,1415.2000,65535.0000,42688.6000,41273.4000,0.0000,0.0000,0.0000,
696,700.36,14278.29,-14278.29,1414.6000,65535.0000,41925.2000,40510.6000,0.0000,0.0000,0.0000,
697,700.80,14269.48,-14269.48,1416.4000,65535.0000,41835.0000,40418.6000,0.0000,0.0000,0.0000,
698,701.23,14260.68,-14260.68,1414.2000,65535.0000,41835.6000,40421.4000,0.0000,0.0000,0.0000,
699,701.66,14251.90,-14251.90,1402.2000,65535.0000,41610.2000,40208.0000,0.0000,0.0000,0.0000,
700,702.09,14243.13,-14243.13,1408.2000,65535.0000,41451.8000,40043.6000,0.0000,0.0000,0.0000,
701,702.52,14234.38,-14234.38,1428.8000,65535.0000,41443.6000,40014.8000,0.0000,0.0000,0.0000,
702,702.96,14225.64,-14225.64,1424.2000,65535.0000,41589.8000,40165.6000,0.0000,0.0000,0.0000,
703,703.39,14216.92,-14216.92,1415.6000,65535.0000,41608.4000,40192.8000,0.0000,0.0000,0.0000,
704,703.82,14208.21,-14208.21,1408.0000,65535.0000,41705.0000,40297.0000,0.0000,0.0000,0.0000,
705,704.25,14199.52,-14199.52,1436.4000,65535.0000,41493.6000,40057.2000,0.0000,0.0000,0.0000,
706,704.68,14190.84,-14190.84,1398.8000,65535.0000,41359.6000,39960.8000,0.0000,0.0000,0.0000,
707,705.11,14182.18,-14182.18,1445.2000,65535.0000,41295.4000,39850.2000,0.0000,0.0000,0.0000,
708,705.54,14173.53,-14173.53,1411.0000,65535.0000,41541.8000,40130.8000,0.0000,0.0000,0.0000,
709,705.97,14164.90,-14164.90,1435.2000,65535.0000,40913.0000,39477.8000,0.0000,0.0000,0.0000,
710,706.40,14156.28,-14156.28,1441.0000,65535.0000,40833.4000,39392.4000,0.0000,0.0000,0.0000,
711,706.83,14147.68,-14147.68,1409.0000,65535.0000,40537.0000,39128.0000,0.0000,0.0000,0.0000,
712,707.26,14139.09,-14139.09,1406.8000,65535.0000,40729.6000,39322.8000,0.0000,0.0000,0.0000,
713,707.69,14130.52,-14130.52,1434.6000,65535.0000,40861.2000,39426.6000,0.0000,0.0000,0.0000,
714,708.12,14121.96,-14121.96,1409.0000,65535.0000,40856.2000,39447.2000,0.0000,0.0000,0.0000,
715,708.55,14113.42,-14113.42,1402.0000,65535.0000,40720.0000,39318.0000,0.0000,0.0000,0.0000,
716,708.97,14104.88,-14104.88,1397.0000,65535.0000,40588.4000,39191.4000,0.0000,0.0000,0.0000,
717,709.40,14096.37,-14096.37,1376.4000,65535.0000,40505.2000,39128.8000,0.0000,0.0000,0.0000,
718,709.83,14087.87,-14087.87,1405.6000,65535.0000,40236.8000,38831.2000,0.0000,0.0000,0.0000,
719,710.26,14079.38,-14079.38,1434.0000,65535.0000,40270.6000,38836.6000,0.0000,0.0000,0.0000,
720,710.69,14070.91,-14070.91,1453.0000,65535.0000,40387.8000,38934.8000,0.0000,0.0000,0.0000,
721,711.11,14062.45,-14062.45,1417.2000,65535.0000,40021.2000,38604.0000,0.0000,0.0000,0.0000,
722,711.54,14054.01,-14054.01,1396.4000,65535.0000,40213.6000,38817.2000,0.0000,0.0000,0.0000,
723,711.97,14045.58,-14045.58,1404.4000,65535.0000,39862.0000,38457.6000,0.0000,0.0000,0.0000,
724,712.39,14037.16,-14037.16,1402.6000,65535.0000,39974.4000,38571.8000,0.0000,0.0000,0.0000,
725,712.82,14028.76,-14028.76,1393.2000,65535.0000,39588.2000,38195.0000,0.0000,0.0000,0.0000,
726,713.25,14020.38,-14020.38,1409.0000,65535.0000,39629.2000,38220.2000,0.0000,0.0000,0.0000,
727,713.67,14012.00,-14012.00,1397.2000,65535.0000,39738.2000,38341.0000,0.0000,0.0000,0.0000,
728,714.10,14003.64,-14003.64,1403.6000,65535.0000,39621.4000,38217.8000,0.0000,0.0000,0.0000,
729,714.53,13995.30,-13995.30,1408.8000,65535.0000,39213.2000,37804.4000,0.0000,0.0000,0.0000,
730,714.95,13986.97,-13986.97,1430.2000,65535.0000,39434.0000,38003.8000,0.0000,0.0000,0.0000,
731,715.38,13978.65,-13978.65,1417.4000,65535.0000,39350.4000,37933.0000,0.0000,0.0000,0.0000,
732,715.80,13970.35,-13970.35,1435.6000,65535.0000,38976.8000,37541.2000,0.0000,0.0000,0.0000,
733,716.23,13962.06,-13962.06,1425.2000,65535.0000,39136.4000,37711.2000,0.0000,0.0000,0.0000,
734,716.65,13953.79,-13953.79,1440.6000,65535.0000,38890.6000,37450.0000,0.0000,0.0000,0.0000,
735,717.08,13945.53,-13945.53,1405.2000,65535.0000,39111.0000,37705.8000,0.0000,0.0000,0.0000,
736,717.50,13937.28,-13937.28,1430.0000,65535.0000,39192.4000,37762.4000,0.0000,0.0000,0.0000,
737,717.92,13929.05,-13929.05,1412.6000,65535.0000,39048.2000,37635.6000,0.0000,0.0000,0.0000,
738,718.35,13920.83,-13920.83,1415.8000,65535.0000,38769.0000,37353.2000,0.0000,0.0000,0.0000,
739,718.77,13912.63,-13912.63,1408.0000,65535.0000,38642.0000,37234.0000,0.0000,0.0000,0.0000,
740,719.20,13904.43,-13904.43,1404.4000,65535.0000,38673.8000,37269.4000,0.0000,0.0000,0.0000,
741,719.62,13896.26,-13896.26,1390.2000,65535.0000,38894.6000,37504.4000,0.0000,0.0000,0.0000,
742,720.04,13888.09,-13888.09,1387.4000,65535.0000,38678.4000,37291.0000,0.0000,0.0000,0.0000,
743,720.46,13879.94,-13879.94,1403.0000,65535.0000,38413.6000,37010.6000,0.0000,0.0000,0.0000,
744,720.89,13871.81,-13871.81,1403.4000,65535.0000,38628.2000,37224.8000,0.0000,0.0000,0.0000,
745,721.31,13863.68,-13863.68,1405.4000,65535.0000,38673.6000,37268.2000,0.0000,0.0000,0.0000,
746,721.73,13855.57,-13855.57,1424.0000,65535.0000,38939.8000,37515.8000,0.0000,0.0000,0.0000,
747,722.15,13847.48,-13847.48,1411.4000,65535.0000,38651.2000,37239.8000,0.0000,0.0000,0.0000,
748,722.57,13839.39,-13839.39,1414.4000,65535.0000,38656.6000,37242.2000,0.0000,0.0000,0.0000,
749,723.00,13831.33,-13831.33,1409.0000,65535.0000,38401.0000,36992.0000,0.0000,0.0000,0.0000,
750,723.42,13823.27,-13823.27,1406.0000,65535.0000,38417.8000,37011.8000,0.0000,0.0000,0.0000,
751,723.84,13815.23,-13815.23,1426.2000,65535.0000,38273.6000,36847.4000,0.0000,0.0000,0.0000,
752,724.26,13807.20,-13807.20,1403.8000,65535.0000,38316.4000,36912.6000,0.0000,0.0000,0.0000,
753,724.68,13799.18,-13799.18,1411.0000,65535.0000,38052.8000,36641.8000,0.0000,0.0000,0.0000,
754,725.10,13791.18,-13791.18,1418.4000,65535.0000,38346.2000,36927.8000,0.0000,0.0000,0.0000,
755,725.52,13783.19,-13783.19,1428.6000,65535.0000,38341.0000,36912.4000,0.0000,0.0000,0.0000,
756,725.94,13775.22,-13775.22,1412.8000,65535.0000,37975.6000,36562.8000,0.0000,0.0000,0.0000,
757,726.36,13767.26,-13767.26,1417.6000,65535.0000,37927.0000,36509.4000,0.0000,0.0000,0.0000,
758,726.78,13759.31,-13759.31,1412.6000,65535.0000,38107.2000,36694.6000,0.0000,0.0000,0.0000,
759,727.20,13751.37,-13751.37,1407.0000,65535.0000,38022.0000,36615.0000,0.0000,0.0000,0.0000,
760,727.62,13743.45,-13743.45,1408.2000,65535.0000,38043.0000,36634.8000,0.0000,0.0000,0.0000,
761,728.04,13735.54,-13735.54,1401.4000,65535.0000,38249.2000,36847.8000,0.0000,0.0000,0.0000,
762,728.46,13727.64,-13727.64,1410.0000,65535.0000,38022.4000,36612.4000,0.0000,0.0000,0.0000,
763,728.88,13719.76,-13719.76,1401.8000,65535.0000,37642.4000,36240.6000,0.0000,0.0000,0.0000,
764,729.29,13711.89,-13711.89,1415.8000,65535.0000,37320.4000,35904.6000,0.0000,0.0000,0.0000,
765,729.71,13704.03,-13704.03,1414.4000,65535.0000,36958.0000,35543.6000,0.0000,0.0000,0.0000,
766,730.13,13696.19,-13696.19,1397.6000,65535.0000,37054.8000,35657.2000,0.0000,0.0000,0.0000,
767,730.55,13688.35,-13688.35,1380.4000,65535.0000,37273.8000,35893.4000,0.0000,0.0000,0.0000,
768,730.97,13680.53,-13680.53,1419.4000,65535.0000,37155.2000,35735.8000,0.0000,0.0000,0.0000,
769,731.38,13672.73,-13672.73,1418.2000,65535.0000,37212.4000,35794.2000,0.0000,0.0000,0.0000,
770,731.80,13664.94,-13664.94,1421.6000,65535.0000,37135.8000,35714.2000,0.0000,0.0000,0.0000,
771,732.22,13657.16,-13657.16,1424.6000,65535.0000,37035.6000,35611.0000,0.0000,0.0000,0.0000,
772,732.63,13649.39,-13649.39,1405.8000,65535.0000,37324.6000,35918.8000,0.0000,0.0000,0.0000,
773,733.05,13641.63,-13641.63,1405.6000,65535.0000,37310.8000,35905.2000,0.0000,0.0000,0.0000,
774,733.47,13633.89,-13633.89,1395.2000,65535.0000,36898.2000,35503.0000,0.0000,0.0000,0.0000,
775,733.88,13626.16,-13626.16,1413.4000,65535.0000,37090.6000,35677.2000,0.0000,0.0000,0.0000,
776,734.30,13618.45,-13618.45,1439.6000,65535.0000,37018.2000,35578.6000,0.0000,0.0000,0.0000,
777,734.71,13610.74,-13610.74,1412.8000,65535.0000,36930.4000,35517.6000,0.0000,0.0000,0.0000,
778,735.13,13603.05,-13603.05,1388.2000,65535.0000,37121.6000,35733.4000,0.0000,0.0000,0.0000,
779,735.54,13595.37,-13595.37,1407.0000,65535.0000,36888.6000,35481.6000,0.0000,0.0000,0.0000,
780,735.96,13587.71,-13587.71,1426.0000,65535.0000,36784.2000,35358.2000,0.0000,0.0000,0.0000,
781,736.37,13580.05,-13580.05,1417.0000,65535.0000,36550.8000,35133.8000,0.0000,0.0000,0.0000,
782,736.79,13572.41,-13572.41,1430.4000,65535.0000,36317.4000,34887.0000,0.0000,0.0000,0.0000,
783,737.20,13564.78,-13564.78,1413.4000,65535.0000,36404.0000,34990.6000,0.0000,0.0000,0.0000,
784,737.62,13557.17,-13557.17,1429.0000,65535.0000,36276.0000,34847.0000,0.0000,0.0000,0.0000,
785,738.03,13549.56,-13549.56,1399.4000,65535.0000,36217.4000,34818.0000,0.0000,0.0000,0.0000,
786,738.44,13541.97,-13541.97,1387.8000,65535.0000,36170.4000,34782.6000,0.0000,0.0000,0.0000,
787,738.86,13534.39,-13534.39,1397.6000,65535.0000,36207.4000,34809.8000,0.0000,0.0000,0.0000,
788,739.27,13526.83,-13526.83,1432.8000,65535.0000,36067.0000,34634.2000,0.0000,0.0000,0.0000,
789,739.68,13519.27,-13519.27,1412.8000,65535.0000,36078.2000,34665.4000,0.0000,0.0000,0.0000,
790,740.10,13511.73,-13511.73,1430.2000,65535.0000,36102.6000,34672.4000,0.0000,0.0000,0.0000,
791,740.51,13504.20,-13504.20,1392.8000,65535.0000,35959.6000,34566.8000,0.0000,0.0000,0.0000,
792,740.92,13496.69,-13496.69,1428.0000,65535.0000,35808.4000,34380.4000,0.0000,0.0000,0.0000,
793,741.33,13489.18,-13489.18,1399.8000,65535.0000,35913.6000,34513.8000,0.0000,0.0000,0.0000,
794,741.75,13481.69,-13481.69,1423.2000,65535.0000,36123.6000,34700.4000,0.0000,0.0000,0.0000,
795,742.16,13474.21,-13474.21,1401.2000,65535.0000,36250.0000,34848.8000,0.0000,0.0000,0.0000,
796,742.57,13466.74,-13466.74,1398.8000,65535.0000,36221.6000,34822.8000,0.0000,0.0000,0.0000,
797,742.98,13459.28,-13459.28,1398.8000,65535.0000,36024.6000,34625.8000,0.0000,0.0000,0.0000,
798,743.39,13451.84,-13451.84,1411.8000,65535.0000,35837.0000,34425.2000,0.0000,0.0000,0.0000,
799,743.80,13444.40,-13444.40,1408.0000,65535.0000,35548.0000,34140.0000,0.0000,0.0000,0.0000,
800,744.21,13436.98,-13436.98,1421.2000,65535.0000,35453.0000,34031.8000,0.0000,0.0000,0.0000,
801,744.63,13429.58,-13429.58,1419.8000,65535.0000,34857.6000,33437.8000,0.0000,0.0000,0.0000,
802,745.04,13422.18,-13422.18,1410.4000,65535.0000,34475.4000,33065.0000,0.0000,0.0000,0.0000,
803,745.45,13414.79,-13414.79,1406.6000,65535.0000,34857.8000,33451.2000,0.0000,0.0000,0.0000,
804,745.86,13407.42,-13407.42,1432.6000,65535.0000,35071.8000,33639.2000,0.0000,0.0000,0.0000,
805,746.27,13400.06,-13400.06,1435.8000,65535.0000,35218.6000,33782.8000,0.0000,0.0000,0.0000,
806,746.67,13392.71,-13392.71,1416.8000,65535.0000,34992.2000,33575.4000,0.0000,0.0000,0.0000,
807,747.08,13385.38,-13385.38,1414.2000,65535.0000,34699.2000,33285.0000,0.0000,0.0000,0.0000,
808,747.49,13378.05,-13378.05,1415.0000,65535.0000,34457.8000,33042.8000,0.0000,0.0000,0.0000,
809,747.90,13370.74,-13370.74,1392.8000,65535.0000,34544.4000,33151.6000,0.0000,0.0000,0.0000,
810,748.31,13363.44,-13363.44,1417.6000,65535.0000,34372.6000,32955.0000,0.0000,0.0000,0.0000,
811,748.72,13356.15,-13356.15,1418.4000,65535.0000,34441.0000,33022.6000,0.0000,0.0000,0.0000,
812,749.13,13348.87,-13348.87,1425.6000,65535.0000,33953.6000,32528.0000,0.0000,0.0000,0.0000,
813,749.54,13341.60,-13341.60,1410.6000,65535.0000,33536.2000,32125.6000,0.0000,0.0000,0.0000,
814,749.94,13334.35,-13334.35,1400.6000,65535.0000,33519.6000,32119.0000,0.0000,0.0000,0.0000,
815,750.35,13327.10,-13327.10,1389.2000,65535.0000,33537.2000,32148.0000,0.0000,0.0000,0.0000,
816,750.76,13319.87,-13319.87,1418.8000,65535.0000,33476.8000,32058.0000,0.0000,0.0000,0.0000,
817,751.17,13312.65,-13312.65,1417.4000,65535.0000,33407.0000,31989.6000,0.0000,0.0000,0.0000,
818,751.57,13305.45,-13305.45,1406.0000,65535.0000,33384.6000,31978.6000,0.0000,0.0000,0.0000,
819,751.98,13298.25,-13298.25,1424.2000,65535.0000,33397.2000,31973.0000,0.0000,0.0000,0.0000,
820,752.39,13291.06,-13291.06,1426.8000,65535.0000,33394.8000,31968.0000,0.0000,0.0000,0.0000,
821,752.79,13283.89,-13283.89,1397.6000,65535.0000,33291.0000,31893.4000,0.0000,0.0000,0.0000,
822,753.20,13276.73,-13276.73,1428.4000,65535.0000,33223.4000,31795.0000,0.0000,0.0000,0.0000,
823,753.60,13269.58,-13269.58,1407.6000,65535.0000,33050.0000,31642.4000,0.0000,0.0000,0.0000,
824,754.01,13262.44,-13262.44,1398.4000,65535.0000,33090.8000,31692.4000,0.0000,0.0000,0.0000,
825,754.41,13255.31,-13255.31,1402.0000,65535.0000,32937.8000,31535.8000,0.0000,0.0000,0.0000,
826,754.82,13248.19,-13248.19,1431.6000,65535.0000,33047.2000,31615.6000,0.0000,0.0000,0.0000,
827,755.22,13241.09,-13241.09,1423.2000,65535.0000,32635.8000,31212.6000,0.0000,0.0000,0.0000,
828,755.63,13233.99,-13233.99,1408.2000,65535.0000,32516.8000,31108.6000,0.0000,0.0000,0.0000,
829,756.03,13226.91,-13226.91,1409.2000,65535.0000,32288.6000,30879.4000,0.0000,0.0000,0.0000,
830,756.44,13219.84,-13219.84,1418.4000,65535.0000,32597.0000,31178.6000,0.0000,0.0000,0.0000,
831,756.84,13212.78,-13212.78,1430.8000,65535.0000,32299.8000,30869.0000,0.0000,0.0000,0.0000,
832,757.25,13205.73,-13205.73,1423.0000,65535.0000,32007.2000,30584.2000,0.0000,0.0000,0.0000,
833,757.65,13198.69,-13198.69,1409.8000,65535.0000,31526.0000,30116.2000,0.0000,0.0000,0.0000,
834,758.05,13191.67,-13191.67,1415.4000,65535.0000,31589.4000,30174.0000,0.0000,0.0000,0.0000,
835,758.46,13184.65,-13184.65,1419.8000,65535.0000,31898.8000,30479.0000,0.0000,0.0000,0.0000,
836,758.86,13177.65,-13177.65,1407.8000,65535.0000,31767.8000,30360.0000,0.0000,0.0000,0.0000,
837,759.26,13170.66,-13170.66,1403.8000,65535.0000,31446.8000,30043.0000,0.0000,0.0000,0.0000,
838,759.67,13163.67,-13163.67,1419.2000,65535.0000,31293.2000,29874.0000,0.0000,0.0000,0.0000,
839,760.07,13156.70,-13156.70,1403.2000,65535.0000,31208.4000,29805.2000,0.0000,0.0000,0.0000,
840,760.47,13149.74,-13149.74,1419.8000,65535.0000,30962.6000,29542.8000,0.0000,0.0000,0.0000,
841,760.87,13142.80,-13142.80,1400.8000,65535.0000,30755.8000,29355.0000,0.0000,0.0000,0.0000,
842,761.28,13135.86,-13135.86,1433.2000,65535.0000,30563.0000,29129.8000,0.0000,0.0000,0.0000,
843,761.68,13128.93,-13128.93,1419.0000,65535.0000,30782.6000,29363.6000,0.0000,0.0000,0.0000,
844,762.08,13122.02,-13122.02,1404.4000,65535.0000,30520.8000,29116.4000,0.0000,0.0000,0.0000,
845,762.48,13115.11,-13115.11,1419.0000,65535.0000,30198.6000,28779.6000,0.0000,0.0000,0.0000,
846,762.88,13108.22,-13108.22,1405.0000,65535.0000,30085.8000,28680.8000,0.0000,0.0000,0.0000,
847,763.28,13101.33,-13101.33,1403.4000,65535.0000,29674.6000,28271.2000,0.0000,0.0000,0.0000,
848,763.68,13094.46,-13094.46,1417.0000,65535.0000,29705.2000,28288.2000,0.0000,0.0000,0.0000,
849,764.08,13087.60,-13087.60,1421.6000,65535.0000,29685.4000,28263.8000,0.0000,0.0000,0.0000,
850,764.48,13080.75,-13080.75,1404.0000,65535.0000,29574.0000,28170.0000,0.0000,0.0000,0.0000,
851,764.88,13073.91,-13073.91,1415.4000,65535.0000,29492.2000,28076.8000,0.0000,0.0000,0.0000,
852,765.28,13067.08,-13067.08,1419.8000,65535.0000,29522.0000,28102.2000,0.0000,0.0000,0.0000,
853,765.68,13060.26,-13060.26,1429.0000,65535.0000,29246.4000,27817.4000,0.0000,0.0000,0.0000,
854,766.08,13053.45,-13053.45,1416.4000,65535.0000,28898.8000,27482.4000,0.0000,0.0000,0.0000,
855,766.48,13046.66,-13046.66,1396.2000,65535.0000,28868.6000,27472.4000,0.0000,0.0000,0.0000,
856,766.88,13039.87,-13039.87,1406.4000,65535.0000,28993.4000,27587.0000,0.0000,0.0000,0.0000,
857,767.28,13033.10,-13033.10,1447.2000,65535.0000,28760.4000,27313.2000,0.0000,0.0000,0.0000,
858,767.68,13026.33,-13026.33,1422.8000,65535.0000,28809.8000,27387.0000,0.0000,0.0000,0.0000,
859,768.07,13019.58,-13019.58,1427.6000,65535.0000,28608.0000,27180.4000,0.0000,0.0000,0.0000,
860,768.47,13012.83,-13012.83,1411.6000,65535.0000,28332.2000,26920.6000,0.0000,0.0000,0.0000,
861,768.87,13006.10,-13006.10,1405.8000,65535.0000,28214.6000,26808.8000,0.0000,0.0000,0.0000,
862,769.27,12999.38,-12999.38,1427.8000,65535.0000,28120.4000,26692.6000,0.0000,0.0000,0.0000,
863,769.66,12992.67,-12992.67,1432.8000,65535.0000,27867.0000,26434.2000,0.0000,0.0000,0.0000,
864,770.06,12985.96,-12985.96,1395.8000,65535.0000,27663.6000,26267.8000,0.0000,0.0000,0.0000,
865,770.46,12979.27,-12979.27,1419.8000,65535.0000,27732.6000,26312.8000,0.0000,0.0000,0.0000,
866,770.86,12972.59,-12972.59,1405.2000,65535.0000,27482.0000,26076.8000,0.0000,0.0000,0.0000,
867,771.25,12965.92,-12965.92,1407.4000,65535.0000,27367.8000,25960.4000,0.0000,0.0000,0.0000,
868,771.65,12959.26,-12959.26,1426.0000,65535.0000,27507.8000,26081.8000,0.0000,0.0000,0.0000,
869,772.04,12952.61,-12952.61,1417.8000,65535.0000,27211.8000,25794.0000,0.0000,0.0000,0.0000,
870,772.44,12945.98,-12945.98,1391.8000,65535.0000,27221.8000,25830.0000,0.0000,0.0000,0.0000,
871,772.84,12939.35,-12939.35,1404.0000,65535.0000,27005.0000,25601.0000,0.0000,0.0000,0.0000,
872,773.23,12932.73,-12932.73,1409.8000,65535.0000,26982.2000,25572.4000,0.0000,0.0000,0.0000,
873,773.63,12926.12,-12926.12,1385.4000,65535.0000,26825.8000,25440.4000,0.0000,0.0000,0.0000,
874,774.02,12919.52,-12919.52,1410.0000,65535.0000,26627.8000,25217.8000,0.0000,0.0000,0.0000,
875,774.42,12912.94,-12912.94,1394.4000,65535.0000,26606.0000,25211.6000,0.0000,0.0000,0.0000,
876,774.81,12906.36,-12906.36,1407.6000,65535.0000,26420.0000,25012.4000,0.0000,0.0000,0.0000,
877,775.21,12899.79,-12899.79,1393.8000,65535.0000,26336.8000,24943.0000,0.0000,0.0000,0.0000,
878,775.60,12893.24,-12893.24,1377.6000,65535.0000,26300.2000,24922.6000,0.0000,0.0000,0.0000,
879,775.99,12886.69,-12886.69,1396.0000,65535.0000,25934.0000,24538.0000,0.0000,0.0000,0.0000,
880,776.39,12880.15,-12880.15,1428.4000,65535.0000,25891.8000,24463.4000,0.0000,0.0000,0.0000,
881,776.78,12873.63,-12873.63,1410.6000,65535.0000,25659.6000,24249.0000,0.0000,0.0000,0.0000,
882,777.18,12867.11,-12867.11,1388.8000,65535.0000,25796.6000,24407.8000,0.0000,0.0000,0.0000,
883,777.57,12860.61,-12860.61,1389.0000,65535.0000,25719.2000,24330.2000,0.0000,0.0000,0.0000,
884,777.96,12854.11,-12854.11,1372.2000,65535.0000,25480.6000,24108.4000,0.0000,0.0000,0.0000,
885,778.35,12847.62,-12847.62,1389.4000,65535.0000,25630.6000,24241.2000,0.0000,0.0000,0.0000,
886,778.75,12841.15,-12841.15,1403.0000,65535.0000,25624.2000,24221.2000,0.0000,0.0000,0.0000,
887,779.14,12834.68,-12834.68,1413.2000,65535.0000,25503.0000,24089.8000,0.0000,0.0000,0.0000,
888,779.53,12828.23,-12828.23,1402.0000,65535.0000,25282.4000,23880.4000,0.0000,0.0000,0.0000,
889,779.92,12821.78,-12821.78,1426.2000,65535.0000,25243.0000,23816.8000,0.0000,0.0000,0.0000,
890,780.31,12815.35,-12815.35,1411.6000,65535.0000,25235.2000,23823.6000,0.0000,0.0000,0.0000,
891,780.71,12808.92,-12808.92,1416.0000,65535.0000,25120.0000,23704.0000,0.0000,0.0000,0.0000,
892,781.10,12802.50,-12802.50,1413.0000,65535.0000,24810.2000,23397.2000,0.0000,0.0000,0.0000,
893,781.49,12796.10,-12796.10,1424.6000,65535.0000,24720.4000,23295.8000,0.0000,0.0000,0.0000,
894,781.88,12789.70,-12789.70,1396.2000,65535.0000,24737.8000,23341.6000,0.0000,0.0000,0.0000,
895,782.27,12783.32,-12783.32,1380.6000,65535.0000,24561.8000,23181.2000,0.0000,0.0000,0.0000,
896,782.66,12776.94,-12776.94,1403.0000,65535.0000,24271.4000,22868.4000,0.0000,0.0000,0.0000,
897,783.05,12770.57,-12770.57,1434.0000,65535.0000,24035.2000,22601.2000,0.0000,0.0000,0.0000,
898,783.44,12764.22,-12764.22,1425.0000,65535.0000,23873.4000,22448.4000,0.0000,0.0000,0.0000,
899,783.83,12757.87,-12757.87,1405.8000,65535.0000,24116.2000,22710.4000,0.0000,0.0000,0.0000,
900,784.22,12751.53,-12751.53,1386.0000,65535.0000,23914.8000,22528.8000,0.0000,0.0000,0.0000,
901,784.61,12745.20,-12745.20,1390.6000,65535.0000,23518.0000,22127.4000,0.0000,0.0000,0.0000,
902,785.00,12738.89,-12738.89,1414.0000,65535.0000,23610.8000,22196.8000,0.0000,0.0000,0.0000,
903,785.39,12732.58,-12732.58,1416.2000,65535.0000,23241.6000,21825.4000,0.0000,0.0000,0.0000,
904,785.78,12726.28,-12726.28,1408.0000,65535.0000,23539.4000,22131.4000,0.0000,0.0000,0.0000,
905,786.16,12719.99,-12719.99,1399.4000,65535.0000,23532.6000,22133.2000,0.0000,0.0000,0.0000,
906,786.55,12713.71,-12713.71,1410.8000,65535.0000,23493.0000,22082.2000,0.0000,0.0000,0.0000,
907,786.94,12707.44,-12707.44,1404.0000,65535.0000,23481.0000,22077.0000,0.0000,0.0000,0.0000,
908,787.33,12701.18,-12701.18,1405.8000,65535.0000,23329.4000,21923.6000,0.0000,0.0000,0.0000,
909,787.72,12694.93,-12694.93,1404.0000,65535.0000,23232.8000,21828.8000,0.0000,0.0000,0.0000,
910,788.10,12688.69,-12688.69,1415.4000,65535.0000,23179.8000,21764.4000,0.0000,0.0000,0.0000,
911,788.49,12682.46,-12682.46,1413.2000,65535.0000,22972.4000,21559.2000,0.0000,0.0000,0.0000,
912,788.88,12676.24,-12676.24,1398.2000,65535.0000,22859.2000,21461.0000,0.0000,0.0000,0.0000,
913,789.26,12670.03,-12670.03,1389.4000,65535.0000,22786.8000,21397.4000,0.0000,0.0000,0.0000,
914,789.65,12663.83,-12663.83,1424.0000,65535.0000,22790.6000,21366.6000,0.0000,0.0000,0.0000,
915,790.04,12657.63,-12657.63,1430.0000,65535.0000,22707.4000,21277.4000,0.0000,0.0000,0.0000,
916,790.42,12651.45,-12651.45,1383.0000,65535.0000,22501.2000,21118.2000,0.0000,0.0000,0.0000,
917,790.81,12645.28,-12645.28,1433.6000,65535.0000,22426.4000,20992.8000,0.0000,0.0000,0.0000,
918,791.19,12639.11,-12639.11,1399.8000,65535.0000,22443.8000,21044.0000,0.0000,0.0000,0.0000,
919,791.58,12632.96,-12632.96,1424.4000,65535.0000,22214.2000,20789.8000,0.0000,0.0000,0.0000,
920,791.97,12626.81,-12626.81,1418.0000,65535.0000,22239.2000,20821.2000,0.0000,0.0000,0.0000,
921,792.35,12620.67,-12620.67,1406.0000,65535.0000,22188.0000,20782.0000,0.0000,0.0000,0.0000,
922,792.74,12614.55,-12614.55,1400.2000,65535.0000,22009.6000,20609.4000,0.0000,0.0000,0.0000,
923,793.12,12608.43,-12608.43,1396.6000,65535.0000,21817.2000,20420.6000,0.0000,0.0000,0.0000,
924,793.50,12602.32,-12602.32,1405.4000,65535.0000,21748.2000,20342.8000,0.0000,0.0000,0.0000,
925,793.89,12596.22,-12596.22,1390.6000,65535.0000,21834.4000,20443.8000,0.0000,0.0000,0.0000,
926,794.27,12590.13,-12590.13,1399.4000,65535.0000,21722.4000,20323.0000,0.0000,0.0000,0.0000,
927,794.66,12584.05,-12584.05,1426.4000,65535.0000,21624.8000,20198.4000,0.0000,0.0000,0.0000,
928,795.04,12577.98,-12577.98,1406.8000,65535.0000,21646.2000,20239.4000,0.0000,0.0000,0.0000,
929,795.42,12571.92,-12571.92,1413.6000,65535.0000,21531.2000,20117.6000,0.0000,0.0000,0.0000,
930,795.81,12565.86,-12565.86,1426.8000,65535.0000,21403.4000,19976.6000,0.0000,0.0000,0.0000,
931,796.19,12559.82,-12559.82,1406.4000,65535.0000,21231.4000,19825.0000,0.0000,0.0000,0.0000,
932,796.57,12553.78,-12553.78,1409.8000,65535.0000,21057.2000,19647.4000,0.0000,0.0000,0.0000,
933,796.96,12547.76,-12547.76,1430.0000,65535.0000,21101.6000,19671.6000,0.0000,0.0000,0.0000,
934,797.34,12541.74,-12541.74,1393.0000,65535.0000,20948.2000,19555.2000,0.0000,0.0000,0.0000,
935,797.72,12535.74,-12535.74,1397.2000,65535.0000,20848.8000,19451.6000,0.0000,0.0000,0.0000,
936,798.10,12529.74,-12529.74,1397.8000,65535.0000,20917.0000,19519.2000,0.0000,0.0000,0.0000,
937,798.48,12523.75,-12523.75,1431.4000,65535.0000,20801.2000,19369.8000,0.0000,0.0000,0.0000,
938,798.86,12517.77,-12517.77,1435.4000,65535.0000,20780.0000,19344.6000,0.0000,0.0000,0.0000,
939,799.25,12511.80,-12511.80,1424.8000,65535.0000,20712.8000,19288.0000,0.0000,0.0000,0.0000,
940,799.63,12505.83,-12505.83,1412.0000,65535.0000,20676.4000,19264.4000,0.0000,0.0000,0.0000,
941,800.01,12499.88,-12499.88,1431.0000,65535.0000,20882.6000,19451.6000,0.0000,0.0000,0.0000,
942,800.39,12493.94,-12493.94,1401.8000,65535.0000,20797.4000,19395.6000,0.0000,0.0000,0.0000,
943,800.77,12488.00,-12488.00,1418.0000,65535.0000,20542.2000,19124.2000,0.0000,0.0000,0.0000,
944,801.15,12482.08,-12482.08,1411.6000,65535.0000,20497.2000,19085.6000,0.0000,0.0000,0.0000,
945,801.53,12476.16,-12476.16,1409.4000,65535.0000,20432.4000,19023.0000,0.0000,0.0000,0.0000,
946,801.91,12470.25,-12470.25,1402.0000,65535.0000,20223.8000,18821.8000,0.0000,0.0000,0.0000,
947,802.29,12464.35,-12464.35,1411.4000,65535.0000,20246.0000,18834.6000,0.0000,0.0000,0.0000,
948,802.67,12458.46,-12458.46,1405.4000,65535.0000,20172.4000,18767.0000,0.0000,0.0000,0.0000,
949,803.05,12452.58,-12452.58,1406.8000,65535.0000,20180.2000,18773.4000,0.0000,0.0000,0.0000,
950,803.43,12446.71,-12446.71,1418.0000,65535.0000,20165.0000,18747.0000,0.0000,0.0000,0.0000,
951,803.80,12440.84,-12440.84,1403.8000,65535.0000,20166.6000,18762.8000,0.0000,0.0000,0.0000,
952,804.18,12434.99,-12434.99,1411.8000,65535.0000,20069.2000,18657.4000,0.0000,0.0000,0.0000,
953,804.56,12429.14,-12429.14,1392.4000,65535.0000,20006.6000,18614.2000,0.0000,0.0000,0.0000,
954,804.94,12423.30,-12423.30,1401.0000,65535.0000,20003.0000,18602.0000,0.0000,0.0000,0.0000,
955,805.32,12417.48,-12417.48,1427.4000,65535.0000,19962.4000,18535.0000,0.0000,0.0000,0.0000,
956,805.69,12411.66,-12411.66,1423.0000,65535.0000,19680.4000,18257.4000,0.0000,0.0000,0.0000,
957,806.07,12405.84,-12405.84,1404.8000,65535.0000,19624.2000,18219.4000,0.0000,0.0000,0.0000,
958,806.45,12400.04,-12400.04,1428.2000,65535.0000,19491.4000,18063.2000,0.0000,0.0000,0.0000,
959,806.83,12394.25,-12394.25,1394.6000,65535.0000,19585.2000,18190.6000,0.0000,0.0000,0.0000,
960,807.20,12388.46,-12388.46,1424.6000,65535.0000,19618.4000,18193.8000,0.0000,0.0000,0.0000,
961,807.58,12382.69,-12382.69,1411.2000,65535.0000,19713.2000,18302.0000,0.0000,0.0000,0.0000,
962,807.96,12376.92,-12376.92,1406.8000,65535.0000,19466.2000,18059.4000,0.0000,0.0000,0.0000,
963,808.33,12371.16,-12371.16,1384.4000,65535.0000,19465.4000,18081.0000,0.0000,0.0000,0.0000,
964,808.71,12365.41,-12365.41,1416.0000,65535.0000,19424.0000,18008.0000,0.0000,0.0000,0.0000,
965,809.08,12359.67,-12359.67,1423.8000,65535.0000,19207.2000,17783.4000,0.0000,0.0000,0.0000,
966,809.46,12353.93,-12353.93,1413.0000,65535.0000,19258.8000,17845.8000,0.0000,0.0000,0.0000,
967,809.83,12348.21,-12348.21,1422.6000,65535.0000,19026.8000,17604.2000,0.0000,0.0000,0.0000,
968,810.21,12342.49,-12342.49,1419.4000,65535.0000,19039.2000,17619.8000,0.0000,0.0000,0.0000,
969,810.58,12336.78,-12336.78,1393.4000,65535.0000,19191.2000,17797.8000,0.0000,0.0000,0.0000,
970,810.96,12331.08,-12331.08,1391.4000,65535.0000,19115.6000,17724.2000,0.0000,0.0000,0.0000,
971,811.33,12325.39,-12325.39,1417.0000,65535.0000,19160.0000,17743.0000,0.0000,0.0000,0.0000,
972,811.71,12319.71,-12319.71,1396.8000,65535.0000,19002.8000,17606.0000,0.0000,0.0000,0.0000,
973,812.08,12314.04,-12314.04,1405.6000,65535.0000,18963.8000,17558.2000,0.0000,0.0000,0.0000,
974,812.46,12308.37,-12308.37,1395.0000,65535.0000,19022.6000,17627.6000,0.0000,0.0000,0.0000,
975,812.83,12302.72,-12302.72,1400.4000,65535.0000,19090.4000,17690.0000,0.0000,0.0000,0.0000,
976,813.20,12297.07,-12297.07,1405.4000,65535.0000,19086.2000,17680.8000,0.0000,0.0000,0.0000,
977,813.58,12291.43,-12291.43,1408.4000,65535.0000,18999.8000,17591.4000,0.0000,0.0000,0.0000,
978,813.95,12285.79,-12285.79,1413.2000,65535.0000,18825.0000,17411.8000,0.0000,0.0000,0.0000,
979,814.32,12280.17,-12280.17,1421.2000,65535.0000,18773.6000,17352.4000,0.0000,0.0000,0.0000,
980,814.69,12274.56,-12274.56,1404.8000,65535.0000,18611.8000,17207.0000,0.0000,0.0000,0.0000,
981,815.07,12268.95,-12268.95,1420.4000,65535.0000,18574.8000,17154.4000,0.0000,0.0000,0.0000,
982,815.44,12263.35,-12263.35,1393.4000,65535.0000,18527.8000,17134.4000,0.0000,0.0000,0.0000,
983,815.81,12257.76,-12257.76,1400.2000,65535.0000,18496.4000,17096.2000,0.0000,0.0000,0.0000,
984,816.18,12252.18,-12252.18,1442.8000,65535.0000,18505.2000,17062.4000,0.0000,0.0000,0.0000,
985,816.55,12246.61,-12246.61,1408.6000,65535.0000,18477.4000,17068.8000,0.0000,0.0000,0.0000,
986,816.92,12241.04,-12241.04,1405.4000,65535.0000,18265.6000,16860.2000,0.0000,0.0000,0.0000,
987,817.29,12235.48,-12235.48,1392.6000,65535.0000,18305.0000,16912.4000,0.0000,0.0000,0.0000,
988,817.67,12229.94,-12229.94,1408.8000,65535.0000,18384.8000,16976.0000,0.0000,0.0000,0.0000,
989,818.04,12224.40,-12224.40,1390.0000,65535.0000,18208.8000,16818.8000,0.0000,0.0000,0.0000,
990,818.41,12218.86,-12218.86,1399.0000,65535.0000,18071.2000,16672.2000,0.0000,0.0000,0.0000,
991,818.78,12213.34,-12213.34,1388.0000,65535.0000,18149.8000,16761.8000,0.0000,0.0000,0.0000,
992,819.15,12207.82,-12207.82,1396.4000,65535.0000,18058.4000,16662.0000,0.0000,0.0000,0.0000,
993,819.52,12202.32,-12202.32,1399.6000,65535.0000,17966.8000,16567.2000,0.0000,0.0000,0.0000,
994,819.89,12196.82,-12196.82,1388.6000,65535.0000,17886.0000,16497.4000,0.0000,0.0000,0.0000,
995,820.26,12191.32,-12191.32,1389.6000,65535.0000,17894.4000,16504.8000,0.0000,0.0000,0.0000,
996,820.62,12185.84,-12185.84,1395.8000,65535.0000,17883.0000,16487.2000,0.0000,0.0000,0.0000,
997,820.99,12180.37,-12180.37,1386.2000,65535.0000,17707.6000,16321.4000,0.0000,0.0000,0.0000,
998,821.36,12174.90,-12174.90,1388.2000,65535.0000,17701.2000,16313.0000,0.0000,0.0000,0.0000,
999,821.73,12169.44,-12169.44,1398.6000,65535.0000,17739.6000,16341.0000,0.0000,0.0000,0.0000,
