File Version;BWSpec4.03_33_C
Date,2026-04-16 15:15:40
title,ZMYE
model,BRC1K
c code,ZMYE
operator,
port1,0
baud1,3
pixel_start,0
pixel_end,999
step,1
units,1
bkcolor,16777215
show_mode,3
data_mode,0
pixel_mode,0
intigration times(ms),8000
average number,5
time_multiply,1
spectrometer_type ,71
yaxis,1
yaxis_min,-494
yaxis_max,65535
xaxis,0
xaxis_min,0
xaxis_max,999
irrands_DispWLMin,100
irrands_DispWLMax,1000
yaxis_min_6,0
yaxis_max_6,0
irradiance_unit,0
Color_Data_Flag,0
Color_StartWL,400
Color_EndWL,700
Color_IncWL,10
power_unit_index,3
photometric_index,0
Illuminant_index,3
observer_index,0
lab_l,0
lab_a,0
lab_b,0
radiometric_flag,0
coefs_a0,348.690626413622
coefs_a1,0.577242842360403
coefs_a2,-0.000102397725884922
coefs_a3,-1.43696470178894E-09
coefs_b0,-604.699216452593
coefs_b1,1.81821494738794
coefs_b2,-0.000542372268672448
coefs_b3,8.54199818797248E-07
coefs_r0,1
coefs_r1,0
coefs_r2,0
coefs_r3,0
coefs_j0,1
coefs_j1,0
coefs_j2,0
coefs_j3,0
enable_coefs_r,0
all_data_save,1
select_option,-1
interval_time,8000
pixel_num,1000
sel_pixel_start,0
sel_pixel_end,968
sel_pixel_delta,1
dark_compensate,0
dark_compensate_value_1,0
dark_compensate_value_2,0
dark_compensate_value_3,0
monitor pixel_0,0
monitor pixel_1,0
monitor pixel_2,0
monitor pixel_3,0
monitor pixel_4,0
monitor pixel_5,0
vertical_select_flag,0
vertical_line3,0
vertical_line4,0
vertical_line3_wv,1
vertical_line4_wv,1
vertical_line_flag,0
vertical_line_ratio,0
laser_wavelength,0
laser_powerlevel,0
overlay_js,0
Relative Intensity Correction Flag,0
Pixel,Wavelength,Wavenumber,Raman Shift,Dark,Reference,Raw data #1,Dark Subtracted #1,%TR #1,Absorbance #1,Irradiance (lumen) #1,
0,348.69,28678.72,-28678.72,2244.2000,65535.0000,2261.4000,17.2000,0.0000,0.0000,0.0000,
1,349.27,28631.33,-28631.33,2208.2000,65535.0000,2232.0000,23.8000,0.0000,0.0000,0.0000,
2,349.84,28584.11,-28584.11,2354.6000,65535.0000,2381.2000,26.6000,0.0000,0.0000,0.0000,
3,350.42,28537.07,-28537.07,2334.8000,65535.0000,2337.4000,2.6000,0.0000,0.0000,0.0000,
4,351.00,28490.19,-28490.19,2340.4000,65535.0000,2311.2000,-29.2000,0.0000,0.0000,0.0000,
5,351.57,28443.49,-28443.49,2825.4000,65535.0000,2807.6000,-17.8000,0.0000,0.0000,0.0000,
6,352.15,28396.96,-28396.96,2450.2000,65535.0000,2478.0000,27.8000,0.0000,0.0000,0.0000,
7,352.73,28350.59,-28350.59,3244.2000,65535.0000,3233.0000,-11.2000,0.0000,0.0000,0.0000,
8,353.30,28304.40,-28304.40,2602.8000,65535.0000,2597.8000,-5.0000,0.0000,0.0000,0.0000,
9,353.88,28258.36,-28258.36,2244.6000,65535.0000,2205.6000,-39.0000,0.0000,0.0000,0.0000,
10,354.45,28212.50,-28212.50,2248.0000,65535.0000,2297.4000,49.4000,0.0000,0.0000,0.0000,
11,355.03,28166.80,-28166.80,2762.2000,65535.0000,2735.0000,-27.2000,0.0000,0.0000,0.0000,
12,355.60,28121.26,-28121.26,2240.4000,65535.0000,2209.2000,-31.2000,0.0000,0.0000,0.0000,
13,356.18,28075.89,-28075.89,2673.0000,65535.0000,2697.0000,24.0000,0.0000,0.0000,0.0000,
14,356.75,28030.68,-28030.68,2366.2000,65535.0000,2395.6000,29.4000,0.0000,0.0000,0.0000,
15,357.33,27985.63,-27985.63,2307.4000,65535.0000,2346.2000,38.8000,0.0000,0.0000,0.0000,
16,357.90,27940.74,-27940.74,2372.6000,65535.0000,2371.8000,-0.8000,0.0000,0.0000,0.0000,
17,358.47,27896.01,-27896.01,2964.2000,65535.0000,3014.4000,50.2000,0.0000,0.0000,0.0000,
18,359.05,27851.44,-27851.44,2254.2000,65535.0000,2273.8000,19.6000,0.0000,0.0000,0.0000,
19,359.62,27807.03,-27807.03,2416.2000,65535.0000,2413.0000,-3.2000,0.0000,0.0000,0.0000,
20,360.19,27762.78,-27762.78,2533.8000,65535.0000,2462.4000,-71.4000,0.0000,0.0000,0.0000,
21,360.77,27718.68,-27718.68,2118.6000,65535.0000,2157.2000,38.6000,0.0000,0.0000,0.0000,
22,361.34,27674.74,-27674.74,2496.4000,65535.0000,2464.6000,-31.8000,0.0000,0.0000,0.0000,
23,361.91,27630.95,-27630.95,2250.6000,65535.0000,2261.0000,10.4000,0.0000,0.0000,0.0000,
24,362.49,27587.31,-27587.31,2540.6000,65535.0000,2565.2000,24.6000,0.0000,0.0000,0.0000,
25,363.06,27543.83,-27543.83,2363.2000,65535.0000,2336.8000,-26.4000,0.0000,0.0000,0.0000,
26,363.63,27500.50,-27500.50,2313.6000,65535.0000,2294.6000,-19.0000,0.0000,0.0000,0.0000,
27,364.20,27457.33,-27457.33,2342.8000,65535.0000,2330.6000,-12.2000,0.0000,0.0000,0.0000,
28,364.77,27414.30,-27414.30,2729.6000,65535.0000,2770.6000,41.0000,0.0000,0.0000,0.0000,
29,365.34,27371.42,-27371.42,1989.0000,65535.0000,1966.0000,-23.0000,0.0000,0.0000,0.0000,
30,365.92,27328.70,-27328.70,2197.2000,65535.0000,2187.2000,-10.0000,0.0000,0.0000,0.0000,
31,366.49,27286.12,-27286.12,2179.2000,65535.0000,2178.2000,-1.0000,0.0000,0.0000,0.0000,
32,367.06,27243.69,-27243.69,2553.8000,65535.0000,2552.8000,-1.0000,0.0000,0.0000,0.0000,
33,367.63,27201.40,-27201.40,2304.2000,65535.0000,2361.0000,56.8000,0.0000,0.0000,0.0000,
34,368.20,27159.27,-27159.27,2727.2000,65535.0000,2762.6000,35.4000,0.0000,0.0000,0.0000,
35,368.77,27117.27,-27117.27,2660.0000,65535.0000,2690.6000,30.6000,0.0000,0.0000,0.0000,
36,369.34,27075.43,-27075.43,2118.8000,65535.0000,2122.6000,3.8000,0.0000,0.0000,0.0000,
37,369.91,27033.72,-27033.72,2321.4000,65535.0000,2308.4000,-13.0000,0.0000,0.0000,0.0000,
38,370.48,26992.16,-26992.16,2507.4000,65535.0000,2552.6000,45.2000,0.0000,0.0000,0.0000,
39,371.05,26950.74,-26950.74,2321.2000,65535.0000,2319.8000,-1.4000,0.0000,0.0000,0.0000,
40,371.62,26909.47,-26909.47,2260.6000,65535.0000,2255.0000,-5.6000,0.0000,0.0000,0.0000,
41,372.19,26868.33,-26868.33,2019.4000,65535.0000,2058.6000,39.2000,0.0000,0.0000,0.0000,
42,372.75,26827.34,-26827.34,2116.2000,65535.0000,2138.2000,22.0000,0.0000,0.0000,0.0000,
43,373.32,26786.48,-26786.48,2181.2000,65535.0000,2198.6000,17.4000,0.0000,0.0000,0.0000,
44,373.89,26745.77,-26745.77,2253.2000,65535.0000,2242.4000,-10.8000,0.0000,0.0000,0.0000,
45,374.46,26705.19,-26705.19,2383.2000,65535.0000,2371.6000,-11.6000,0.0000,0.0000,0.0000,
46,375.03,26664.75,-26664.75,2245.4000,65535.0000,2247.8000,2.4000,0.0000,0.0000,0.0000,
47,375.59,26624.44,-26624.44,2350.8000,65535.0000,2362.0000,11.2000,0.0000,0.0000,0.0000,
48,376.16,26584.28,-26584.28,2248.2000,65535.0000,2211.2000,-37.0000,0.0000,0.0000,0.0000,
49,376.73,26544.24,-26544.24,2218.0000,65535.0000,2236.0000,18.0000,0.0000,0.0000,0.0000,
50,377.30,26504.35,-26504.35,2494.2000,65535.0000,2492.2000,-2.0000,0.0000,0.0000,0.0000,
51,377.86,26464.58,-26464.58,2658.2000,65535.0000,2701.2000,43.0000,0.0000,0.0000,0.0000,
52,378.43,26424.95,-26424.95,2775.0000,65535.0000,2804.6000,29.6000,0.0000,0.0000,0.0000,
53,379.00,26385.46,-26385.46,3111.0000,65535.0000,3096.2000,-14.8000,0.0000,0.0000,0.0000,
54,379.56,26346.09,-26346.09,2018.2000,65535.0000,2040.4000,22.2000,0.0000,0.0000,0.0000,
55,380.13,26306.86,-26306.86,2070.8000,65535.0000,2085.0000,14.2000,0.0000,0.0000,0.0000,
56,380.69,26267.76,-26267.76,2621.8000,65535.0000,2653.4000,31.6000,0.0000,0.0000,0.0000,
57,381.26,26228.78,-26228.78,2370.0000,65535.0000,2355.6000,-14.4000,0.0000,0.0000,0.0000,
58,381.83,26189.94,-26189.94,2468.2000,65535.0000,2500.6000,32.4000,0.0000,0.0000,0.0000,
59,382.39,26151.23,-26151.23,2395.2000,65535.0000,2424.4000,29.2000,0.0000,0.0000,0.0000,
60,382.96,26112.64,-26112.64,2506.6000,65535.0000,2535.6000,29.0000,0.0000,0.0000,0.0000,
61,383.52,26074.19,-26074.19,2300.6000,65535.0000,2294.4000,-6.2000,0.0000,0.0000,0.0000,
62,384.09,26035.85,-26035.85,2492.2000,65535.0000,2488.6000,-3.6000,0.0000,0.0000,0.0000,
63,384.65,25997.65,-25997.65,2242.6000,65535.0000,2260.6000,18.0000,0.0000,0.0000,0.0000,
64,385.21,25959.57,-25959.57,2816.0000,65535.0000,2832.8000,16.8000,0.0000,0.0000,0.0000,
65,385.78,25921.62,-25921.62,2404.6000,65535.0000,2380.4000,-24.2000,0.0000,0.0000,0.0000,
66,386.34,25883.79,-25883.79,2692.8000,65535.0000,2725.2000,32.4000,0.0000,0.0000,0.0000,
67,386.91,25846.08,-25846.08,2313.6000,65535.0000,2305.4000,-8.2000,0.0000,0.0000,0.0000,
68,387.47,25808.50,-25808.50,2400.8000,65535.0000,2380.6000,-20.2000,0.0000,0.0000,0.0000,
69,388.03,25771.04,-25771.04,2246.8000,65535.0000,2281.6000,34.8000,0.0000,0.0000,0.0000,
70,388.60,25733.71,-25733.71,2018.6000,65535.0000,2074.0000,55.4000,0.0000,0.0000,0.0000,
71,389.16,25696.49,-25696.49,2588.0000,65535.0000,2602.4000,14.4000,0.0000,0.0000,0.0000,
72,389.72,25659.40,-25659.40,2634.0000,65535.0000,2649.8000,15.8000,0.0000,0.0000,0.0000,
73,390.28,25622.43,-25622.43,3030.0000,65535.0000,3039.4000,9.4000,0.0000,0.0000,0.0000,
74,390.85,25585.57,-25585.57,2259.0000,65535.0000,2293.0000,34.0000,0.0000,0.0000,0.0000,
75,391.41,25548.84,-25548.84,2208.2000,65535.0000,2270.4000,62.2000,0.0000,0.0000,0.0000,
76,391.97,25512.22,-25512.22,2798.0000,65535.0000,2797.4000,-0.6000,0.0000,0.0000,0.0000,
77,392.53,25475.72,-25475.72,2510.6000,65535.0000,2494.8000,-15.8000,0.0000,0.0000,0.0000,
78,393.09,25439.34,-25439.34,2644.6000,65535.0000,2670.2000,25.6000,0.0000,0.0000,0.0000,
79,393.65,25403.08,-25403.08,2506.0000,65535.0000,2492.4000,-13.6000,0.0000,0.0000,0.0000,
80,394.21,25366.93,-25366.93,2889.2000,65535.0000,2874.8000,-14.4000,0.0000,0.0000,0.0000,
81,394.77,25330.90,-25330.90,2390.2000,65535.0000,2397.8000,7.6000,0.0000,0.0000,0.0000,
82,395.34,25294.99,-25294.99,2867.2000,65535.0000,2890.6000,23.4000,0.0000,0.0000,0.0000,
83,395.90,25259.19,-25259.19,2984.8000,65535.0000,3059.6000,74.8000,0.0000,0.0000,0.0000,
84,396.46,25223.50,-25223.50,2391.4000,65535.0000,2395.8000,4.4000,0.0000,0.0000,0.0000,
85,397.02,25187.93,-25187.93,2413.6000,65535.0000,2421.8000,8.2000,0.0000,0.0000,0.0000,
86,397.58,25152.47,-25152.47,2760.2000,65535.0000,2773.4000,13.2000,0.0000,0.0000,0.0000,
87,398.13,25117.12,-25117.12,2049.8000,65535.0000,2031.2000,-18.6000,0.0000,0.0000,0.0000,
88,398.69,25081.89,-25081.89,2260.8000,65535.0000,2253.4000,-7.4000,0.0000,0.0000,0.0000,
89,399.25,25046.77,-25046.77,2413.0000,65535.0000,2477.0000,64.0000,0.0000,0.0000,0.0000,
90,399.81,25011.75,-25011.75,2658.6000,65535.0000,2682.4000,23.8000,0.0000,0.0000,0.0000,
91,400.37,24976.85,-24976.85,2495.0000,65535.0000,2523.8000,28.8000,0.0000,0.0000,0.0000,
92,400.93,24942.06,-24942.06,3509.4000,65535.0000,3497.2000,-12.2000,0.0000,0.0000,0.0000,
93,401.49,24907.38,-24907.38,2593.4000,65535.0000,2589.4000,-4.0000,0.0000,0.0000,0.0000,
94,402.05,24872.81,-24872.81,2627.2000,65535.0000,2692.0000,64.8000,0.0000,0.0000,0.0000,
95,402.60,24838.34,-24838.34,2556.0000,65535.0000,2609.6000,53.6000,0.0000,0.0000,0.0000,
96,403.16,24803.99,-24803.99,2555.8000,65535.0000,2552.2000,-3.6000,0.0000,0.0000,0.0000,
97,403.72,24769.74,-24769.74,2426.0000,65535.0000,2453.0000,27.0000,0.0000,0.0000,0.0000,
98,404.28,24735.60,-24735.60,2523.0000,65535.0000,2613.0000,90.0000,0.0000,0.0000,0.0000,
99,404.83,24701.56,-24701.56,2138.4000,65535.0000,2147.4000,9.0000,0.0000,0.0000,0.0000,
100,405.39,24667.63,-24667.63,2210.6000,65535.0000,2239.8000,29.2000,0.0000,0.0000,0.0000,
101,405.95,24633.81,-24633.81,2525.8000,65535.0000,2499.4000,-26.4000,0.0000,0.0000,0.0000,
102,406.50,24600.09,-24600.09,2447.0000,65535.0000,2489.2000,42.2000,0.0000,0.0000,0.0000,
103,407.06,24566.48,-24566.48,2510.4000,65535.0000,2553.8000,43.4000,0.0000,0.0000,0.0000,
104,407.61,24532.97,-24532.97,2549.4000,65535.0000,2580.2000,30.8000,0.0000,0.0000,0.0000,
105,408.17,24499.56,-24499.56,2359.8000,65535.0000,2407.2000,47.4000,0.0000,0.0000,0.0000,
106,408.73,24466.26,-24466.26,2421.0000,65535.0000,2483.6000,62.6000,0.0000,0.0000,0.0000,
107,409.28,24433.06,-24433.06,2177.6000,65535.0000,2217.0000,39.4000,0.0000,0.0000,0.0000,
108,409.84,24399.96,-24399.96,2316.2000,65535.0000,2311.2000,-5.0000,0.0000,0.0000,0.0000,
109,410.39,24366.97,-24366.97,2811.8000,65535.0000,2831.6000,19.8000,0.0000,0.0000,0.0000,
110,410.95,24334.07,-24334.07,2757.8000,65535.0000,2806.2000,48.4000,0.0000,0.0000,0.0000,
111,411.50,24301.28,-24301.28,2599.2000,65535.0000,2668.0000,68.8000,0.0000,0.0000,0.0000,
112,412.06,24268.59,-24268.59,2301.0000,65535.0000,2359.6000,58.6000,0.0000,0.0000,0.0000,
113,412.61,24235.99,-24235.99,2585.8000,65535.0000,2627.2000,41.4000,0.0000,0.0000,0.0000,
114,413.16,24203.50,-24203.50,2616.2000,65535.0000,2659.0000,42.8000,0.0000,0.0000,0.0000,
115,413.72,24171.10,-24171.10,2645.4000,65535.0000,2681.2000,35.8000,0.0000,0.0000,0.0000,
116,414.27,24138.81,-24138.81,2143.8000,65535.0000,2182.4000,38.6000,0.0000,0.0000,0.0000,
117,414.82,24106.61,-24106.61,2333.2000,65535.0000,2382.0000,48.8000,0.0000,0.0000,0.0000,
118,415.38,24074.51,-24074.51,2989.2000,65535.0000,3003.0000,13.8000,0.0000,0.0000,0.0000,
119,415.93,24042.50,-24042.50,2412.0000,65535.0000,2438.0000,26.0000,0.0000,0.0000,0.0000,
120,416.48,24010.60,-24010.60,2331.0000,65535.0000,2431.2000,100.2000,0.0000,0.0000,0.0000,
121,417.04,23978.79,-23978.79,2723.0000,65535.0000,2800.2000,77.2000,0.0000,0.0000,0.0000,
122,417.59,23947.07,-23947.07,2161.6000,65535.0000,2172.2000,10.6000,0.0000,0.0000,0.0000,
123,418.14,23915.46,-23915.46,2498.0000,65535.0000,2525.4000,27.4000,0.0000,0.0000,0.0000,
124,418.69,23883.93,-23883.93,2665.8000,65535.0000,2666.0000,0.2000,0.0000,0.0000,0.0000,
125,419.24,23852.50,-23852.50,2644.8000,65535.0000,2658.6000,13.8000,0.0000,0.0000,0.0000,
126,419.79,23821.17,-23821.17,2638.6000,65535.0000,2674.0000,35.4000,0.0000,0.0000,0.0000,
127,420.35,23789.93,-23789.93,2580.4000,65535.0000,2648.2000,67.8000,0.0000,0.0000,0.0000,
128,420.90,23758.78,-23758.78,1989.8000,65535.0000,2039.4000,49.6000,0.0000,0.0000,0.0000,
129,421.45,23727.73,-23727.73,2377.6000,65535.0000,2469.6000,92.0000,0.0000,0.0000,0.0000,
130,422.00,23696.77,-23696.77,2419.0000,65535.0000,2497.6000,78.6000,0.0000,0.0000,0.0000,
131,422.55,23665.90,-23665.90,2418.8000,65535.0000,2470.4000,51.6000,0.0000,0.0000,0.0000,
132,423.10,23635.12,-23635.12,2420.0000,65535.0000,2458.6000,38.6000,0.0000,0.0000,0.0000,
133,423.65,23604.43,-23604.43,2434.0000,65535.0000,2483.0000,49.0000,0.0000,0.0000,0.0000,
134,424.20,23573.84,-23573.84,2234.0000,65535.0000,2295.4000,61.4000,0.0000,0.0000,0.0000,
135,424.75,23543.33,-23543.33,2967.2000,65535.0000,3042.2000,75.0000,0.0000,0.0000,0.0000,
136,425.30,23512.92,-23512.92,2473.0000,65535.0000,2571.4000,98.4000,0.0000,0.0000,0.0000,
137,425.85,23482.60,-23482.60,2114.0000,65535.0000,2158.2000,44.2000,0.0000,0.0000,0.0000,
138,426.40,23452.36,-23452.36,2394.2000,65535.0000,2461.0000,66.8000,0.0000,0.0000,0.0000,
139,426.95,23422.22,-23422.22,2684.6000,65535.0000,2769.4000,84.8000,0.0000,0.0000,0.0000,
140,427.49,23392.16,-23392.16,2203.2000,65535.0000,2269.4000,66.2000,0.0000,0.0000,0.0000,
141,428.04,23362.19,-23362.19,2384.8000,65535.0000,2483.4000,98.6000,0.0000,0.0000,0.0000,
142,428.59,23332.31,-23332.31,2223.0000,65535.0000,2274.0000,51.0000,0.0000,0.0000,0.0000,
143,429.14,23302.52,-23302.52,2575.2000,65535.0000,2660.2000,85.0000,0.0000,0.0000,0.0000,
144,429.69,23272.81,-23272.81,2708.2000,65535.0000,2795.4000,87.2000,0.0000,0.0000,0.0000,
145,430.23,23243.19,-23243.19,2243.2000,65535.0000,2277.2000,34.0000,0.0000,0.0000,0.0000,
146,430.78,23213.66,-23213.66,2316.0000,65535.0000,2369.8000,53.8000,0.0000,0.0000,0.0000,
147,431.33,23184.21,-23184.21,2564.2000,65535.0000,2600.0000,35.8000,0.0000,0.0000,0.0000,
148,431.87,23154.85,-23154.85,2653.6000,65535.0000,2685.4000,31.8000,0.0000,0.0000,0.0000,
149,432.42,23125.57,-23125.57,2878.4000,65535.0000,2869.2000,-9.2000,0.0000,0.0000,0.0000,
150,432.97,23096.38,-23096.38,2447.2000,65535.0000,2548.2000,101.0000,0.0000,0.0000,0.0000,
151,433.51,23067.28,-23067.28,2353.0000,65535.0000,2419.6000,66.6000,0.0000,0.0000,0.0000,
152,434.06,23038.25,-23038.25,2864.2000,65535.0000,2926.8000,62.6000,0.0000,0.0000,0.0000,
153,434.61,23009.31,-23009.31,2480.2000,65535.0000,2524.0000,43.8000,0.0000,0.0000,0.0000,
154,435.15,22980.46,-22980.46,2692.6000,65535.0000,2728.0000,35.4000,0.0000,0.0000,0.0000,
155,435.70,22951.69,-22951.69,2435.2000,65535.0000,2519.2000,84.0000,0.0000,0.0000,0.0000,
156,436.24,22923.00,-22923.00,2893.8000,65535.0000,2974.0000,80.2000,0.0000,0.0000,0.0000,
157,436.79,22894.39,-22894.39,2847.6000,65535.0000,2968.2000,120.6000,0.0000,0.0000,0.0000,
158,437.33,22865.87,-22865.87,2321.6000,65535.0000,2363.8000,42.2000,0.0000,0.0000,0.0000,
159,437.88,22837.42,-22837.42,2098.4000,65535.0000,2149.4000,51.0000,0.0000,0.0000,0.0000,
160,438.42,22809.06,-22809.06,2307.6000,65535.0000,2397.8000,90.2000,0.0000,0.0000,0.0000,
161,438.97,22780.78,-22780.78,2752.8000,65535.0000,2855.4000,102.6000,0.0000,0.0000,0.0000,
162,439.51,22752.58,-22752.58,2631.8000,65535.0000,2673.6000,41.8000,0.0000,0.0000,0.0000,
163,440.05,22724.46,-22724.46,2340.2000,65535.0000,2450.0000,109.8000,0.0000,0.0000,0.0000,
164,440.60,22696.42,-22696.42,2390.0000,65535.0000,2438.2000,48.2000,0.0000,0.0000,0.0000,
165,441.14,22668.47,-22668.47,2565.0000,65535.0000,2629.2000,64.2000,0.0000,0.0000,0.0000,
166,441.68,22640.59,-22640.59,2635.0000,65535.0000,2719.4000,84.4000,0.0000,0.0000,0.0000,
167,442.23,22612.78,-22612.78,2060.8000,65535.0000,2142.8000,82.0000,0.0000,0.0000,0.0000,
168,442.77,22585.06,-22585.06,2325.6000,65535.0000,2386.0000,60.4000,0.0000,0.0000,0.0000,
169,443.31,22557.42,-22557.42,2157.2000,65535.0000,2294.0000,136.8000,0.0000,0.0000,0.0000,
170,443.86,22529.85,-22529.85,2384.2000,65535.0000,2428.0000,43.8000,0.0000,0.0000,0.0000,
171,444.40,22502.36,-22502.36,2392.0000,65535.0000,2477.0000,85.0000,0.0000,0.0000,0.0000,
172,444.94,22474.95,-22474.95,2710.6000,65535.0000,2777.2000,66.6000,0.0000,0.0000,0.0000,
173,445.48,22447.62,-22447.62,2464.0000,65535.0000,2508.6000,44.6000,0.0000,0.0000,0.0000,
174,446.02,22420.36,-22420.36,2748.6000,65535.0000,2861.2000,112.6000,0.0000,0.0000,0.0000,
175,446.56,22393.18,-22393.18,2981.2000,65535.0000,3029.0000,47.8000,0.0000,0.0000,0.0000,
176,447.11,22366.08,-22366.08,2279.8000,65535.0000,2327.4000,47.6000,0.0000,0.0000,0.0000,
177,447.65,22339.05,-22339.05,2375.6000,65535.0000,2442.0000,66.4000,0.0000,0.0000,0.0000,
178,448.19,22312.10,-22312.10,2226.0000,65535.0000,2310.8000,84.8000,0.0000,0.0000,0.0000,
179,448.73,22285.22,-22285.22,2708.6000,65535.0000,2800.0000,91.4000,0.0000,0.0000,0.0000,
180,449.27,22258.42,-22258.42,2391.4000,65535.0000,2473.4000,82.0000,0.0000,0.0000,0.0000,
181,449.81,22231.69,-22231.69,2171.0000,65535.0000,2287.8000,116.8000,0.0000,0.0000,0.0000,
182,450.35,22205.03,-22205.03,2566.4000,65535.0000,2650.0000,83.6000,0.0000,0.0000,0.0000,
183,450.89,22178.45,-22178.45,2532.4000,65535.0000,2628.8000,96.4000,0.0000,0.0000,0.0000,
184,451.43,22151.95,-22151.95,2189.2000,65535.0000,2316.0000,126.8000,0.0000,0.0000,0.0000,
185,451.97,22125.51,-22125.51,2885.0000,65535.0000,3008.8000,123.8000,0.0000,0.0000,0.0000,
186,452.51,22099.15,-22099.15,2506.6000,65535.0000,2613.2000,106.6000,0.0000,0.0000,0.0000,
187,453.04,22072.87,-22072.87,2475.0000,65535.0000,2584.6000,109.6000,0.0000,0.0000,0.0000,
188,453.58,22046.65,-22046.65,2151.2000,65535.0000,2269.8000,118.6000,0.0000,0.0000,0.0000,
189,454.12,22020.51,-22020.51,3047.6000,65535.0000,3154.2000,106.6000,0.0000,0.0000,0.0000,
190,454.66,21994.44,-21994.44,2377.0000,65535.0000,2479.2000,102.2000,0.0000,0.0000,0.0000,
191,455.20,21968.44,-21968.44,2641.0000,65535.0000,2751.0000,110.0000,0.0000,0.0000,0.0000,
192,455.74,21942.51,-21942.51,2578.0000,65535.0000,2651.0000,73.0000,0.0000,0.0000,0.0000,
193,456.27,21916.66,-21916.66,2641.0000,65535.0000,2805.6000,164.6000,0.0000,0.0000,0.0000,
194,456.81,21890.87,-21890.87,3239.0000,65535.0000,3367.0000,128.0000,0.0000,0.0000,0.0000,
195,457.35,21865.16,-21865.16,2469.6000,65535.0000,2557.8000,88.2000,0.0000,0.0000,0.0000,
196,457.89,21839.51,-21839.51,2310.6000,65535.0000,2406.0000,95.4000,0.0000,0.0000,0.0000,
197,458.42,21813.94,-21813.94,3349.8000,65535.0000,3475.0000,125.2000,0.0000,0.0000,0.0000,
198,458.96,21788.43,-21788.43,2726.4000,65535.0000,2887.0000,160.6000,0.0000,0.0000,0.0000,
199,459.50,21763.00,-21763.00,2887.0000,65535.0000,3049.8000,162.8000,0.0000,0.0000,0.0000,
200,460.03,21737.63,-21737.63,2812.2000,65535.0000,2897.6000,85.4000,0.0000,0.0000,0.0000,
201,460.57,21712.33,-21712.33,2478.8000,65535.0000,2569.4000,90.6000,0.0000,0.0000,0.0000,
202,461.10,21687.10,-21687.10,3027.6000,65535.0000,3165.0000,137.4000,0.0000,0.0000,0.0000,
203,461.64,21661.94,-21661.94,2154.6000,65535.0000,2310.0000,155.4000,0.0000,0.0000,0.0000,
204,462.17,21636.85,-21636.85,2139.6000,65535.0000,2255.2000,115.6000,0.0000,0.0000,0.0000,
205,462.71,21611.82,-21611.82,2701.2000,65535.0000,2810.0000,108.8000,0.0000,0.0000,0.0000,
206,463.24,21586.86,-21586.86,2678.8000,65535.0000,2814.2000,135.4000,0.0000,0.0000,0.0000,
207,463.78,21561.97,-21561.97,2892.0000,65535.0000,3126.0000,234.0000,0.0000,0.0000,0.0000,
208,464.31,21537.15,-21537.15,2375.4000,65535.0000,2542.6000,167.2000,0.0000,0.0000,0.0000,
209,464.85,21512.39,-21512.39,2631.2000,65535.0000,2746.8000,115.6000,0.0000,0.0000,0.0000,
210,465.38,21487.70,-21487.70,2306.0000,65535.0000,2473.2000,167.2000,0.0000,0.0000,0.0000,
211,465.92,21463.07,-21463.07,2355.4000,65535.0000,2516.8000,161.4000,0.0000,0.0000,0.0000,
212,466.45,21438.51,-21438.51,3153.2000,65535.0000,3302.4000,149.2000,0.0000,0.0000,0.0000,
213,466.98,21414.02,-21414.02,4227.0000,65535.0000,4367.6000,140.6000,0.0000,0.0000,0.0000,
214,467.52,21389.59,-21389.59,2708.6000,65535.0000,2867.4000,158.8000,0.0000,0.0000,0.0000,
215,468.05,21365.23,-21365.23,2527.2000,65535.0000,2723.2000,196.0000,0.0000,0.0000,0.0000,
216,468.58,21340.93,-21340.93,2214.4000,65535.0000,2403.6000,189.2000,0.0000,0.0000,0.0000,
217,469.12,21316.70,-21316.70,2477.6000,65535.0000,2654.2000,176.6000,0.0000,0.0000,0.0000,
218,469.65,21292.53,-21292.53,2979.6000,65535.0000,3136.2000,156.6000,0.0000,0.0000,0.0000,
219,470.18,21268.42,-21268.42,2599.8000,65535.0000,2741.8000,142.0000,0.0000,0.0000,0.0000,
220,470.71,21244.38,-21244.38,2274.6000,65535.0000,2429.4000,154.8000,0.0000,0.0000,0.0000,
221,471.24,21220.40,-21220.40,2185.8000,65535.0000,2368.6000,182.8000,0.0000,0.0000,0.0000,
222,471.78,21196.49,-21196.49,2283.6000,65535.0000,2477.2000,193.6000,0.0000,0.0000,0.0000,
223,472.31,21172.64,-21172.64,2653.2000,65535.0000,2860.8000,207.6000,0.0000,0.0000,0.0000,
224,472.84,21148.85,-21148.85,2280.8000,65535.0000,2463.4000,182.6000,0.0000,0.0000,0.0000,
225,473.37,21125.12,-21125.12,2763.0000,65535.0000,2985.6000,222.6000,0.0000,0.0000,0.0000,
226,473.90,21101.46,-21101.46,2400.8000,65535.0000,2641.0000,240.2000,0.0000,0.0000,0.0000,
227,474.43,21077.86,-21077.86,2507.8000,65535.0000,2726.6000,218.8000,0.0000,0.0000,0.0000,
228,474.96,21054.32,-21054.32,2588.4000,65535.0000,2809.0000,220.6000,0.0000,0.0000,0.0000,
229,475.49,21030.84,-21030.84,2450.6000,65535.0000,2652.0000,201.4000,0.0000,0.0000,0.0000,
230,476.02,21007.43,-21007.43,2674.4000,65535.0000,2908.8000,234.4000,0.0000,0.0000,0.0000,
231,476.55,20984.07,-20984.07,2246.8000,65535.0000,2469.2000,222.4000,0.0000,0.0000,0.0000,
232,477.08,20960.78,-20960.78,2186.4000,65535.0000,2398.2000,211.8000,0.0000,0.0000,0.0000,
233,477.61,20937.54,-20937.54,2378.8000,65535.0000,2610.0000,231.2000,0.0000,0.0000,0.0000,
234,478.14,20914.37,-20914.37,2400.4000,65535.0000,2641.2000,240.8000,0.0000,0.0000,0.0000,
235,478.67,20891.26,-20891.26,2317.6000,65535.0000,2604.6000,287.0000,0.0000,0.0000,0.0000,
236,479.20,20868.20,-20868.20,2719.0000,65535.0000,2977.2000,258.2000,0.0000,0.0000,0.0000,
237,479.73,20845.21,-20845.21,2312.6000,65535.0000,2582.4000,269.8000,0.0000,0.0000,0.0000,
238,480.25,20822.28,-20822.28,2139.6000,65535.0000,2418.2000,278.6000,0.0000,0.0000,0.0000,
239,480.78,20799.40,-20799.40,2434.2000,65535.0000,2728.8000,294.6000,0.0000,0.0000,0.0000,
240,481.31,20776.59,-20776.59,2628.2000,65535.0000,2908.4000,280.2000,0.0000,0.0000,0.0000,
241,481.84,20753.83,-20753.83,2476.2000,65535.0000,2849.0000,372.8000,0.0000,0.0000,0.0000,
242,482.37,20731.14,-20731.14,2254.4000,65535.0000,2573.2000,318.8000,0.0000,0.0000,0.0000,
243,482.89,20708.50,-20708.50,2576.2000,65535.0000,2910.0000,333.8000,0.0000,0.0000,0.0000,
244,483.42,20685.92,-20685.92,2410.6000,65535.0000,2701.0000,290.4000,0.0000,0.0000,0.0000,
245,483.95,20663.40,-20663.40,2511.4000,65535.0000,2854.4000,343.0000,0.0000,0.0000,0.0000,
246,484.47,20640.93,-20640.93,2714.4000,65535.0000,3001.6000,287.2000,0.0000,0.0000,0.0000,
247,485.00,20618.52,-20618.52,2402.0000,65535.0000,2736.8000,334.8000,0.0000,0.0000,0.0000,
248,485.53,20596.17,-20596.17,2950.8000,65535.0000,3301.6000,350.8000,0.0000,0.0000,0.0000,
249,486.05,20573.88,-20573.88,2822.8000,65535.0000,3166.0000,343.2000,0.0000,0.0000,0.0000,
250,486.58,20551.65,-20551.65,2609.4000,65535.0000,2996.6000,387.2000,0.0000,0.0000,0.0000,
251,487.10,20529.47,-20529.47,2896.0000,65535.0000,3271.0000,375.0000,0.0000,0.0000,0.0000,
252,487.63,20507.35,-20507.35,2246.8000,65535.0000,2624.0000,377.2000,0.0000,0.0000,0.0000,
253,488.16,20485.28,-20485.28,2690.4000,65535.0000,3097.2000,406.8000,0.0000,0.0000,0.0000,
254,488.68,20463.27,-20463.27,2536.2000,65535.0000,2931.0000,394.8000,0.0000,0.0000,0.0000,
255,489.21,20441.32,-20441.32,2840.6000,65535.0000,3236.6000,396.0000,0.0000,0.0000,0.0000,
256,489.73,20419.42,-20419.42,2340.4000,65535.0000,2727.0000,386.6000,0.0000,0.0000,0.0000,
257,490.25,20397.57,-20397.57,2601.0000,65535.0000,3043.0000,442.0000,0.0000,0.0000,0.0000,
258,490.78,20375.79,-20375.79,2883.4000,65535.0000,3350.4000,467.0000,0.0000,0.0000,0.0000,
259,491.30,20354.05,-20354.05,2477.0000,65535.0000,2888.0000,411.0000,0.0000,0.0000,0.0000,
260,491.83,20332.38,-20332.38,2478.6000,65535.0000,2910.0000,431.4000,0.0000,0.0000,0.0000,
261,492.35,20310.75,-20310.75,2195.0000,65535.0000,2651.8000,456.8000,0.0000,0.0000,0.0000,
262,492.87,20289.19,-20289.19,2844.2000,65535.0000,3311.0000,466.8000,0.0000,0.0000,0.0000,
263,493.40,20267.67,-20267.67,3353.0000,65535.0000,3820.0000,467.0000,0.0000,0.0000,0.0000,
264,493.92,20246.21,-20246.21,2517.8000,65535.0000,2966.8000,449.0000,0.0000,0.0000,0.0000,
265,494.44,20224.80,-20224.80,2322.0000,65535.0000,2764.0000,442.0000,0.0000,0.0000,0.0000,
266,494.96,20203.45,-20203.45,2033.6000,65535.0000,2516.4000,482.8000,0.0000,0.0000,0.0000,
267,495.49,20182.15,-20182.15,2253.2000,65535.0000,2723.4000,470.2000,0.0000,0.0000,0.0000,
268,496.01,20160.91,-20160.91,2182.6000,65535.0000,2720.6000,538.0000,0.0000,0.0000,0.0000,
269,496.53,20139.71,-20139.71,2205.0000,65535.0000,2741.4000,536.4000,0.0000,0.0000,0.0000,
270,497.05,20118.57,-20118.57,2835.0000,65535.0000,3339.2000,504.2000,0.0000,0.0000,0.0000,
271,497.57,20097.49,-20097.49,2697.2000,65535.0000,3199.0000,501.8000,0.0000,0.0000,0.0000,
272,498.10,20076.45,-20076.45,2447.2000,65535.0000,2971.6000,524.4000,0.0000,0.0000,0.0000,
273,498.62,20055.47,-20055.47,2616.6000,65535.0000,3127.4000,510.8000,0.0000,0.0000,0.0000,
274,499.14,20034.54,-20034.54,2022.0000,65535.0000,2531.0000,509.0000,0.0000,0.0000,0.0000,
275,499.66,20013.66,-20013.66,3935.8000,65535.0000,4512.0000,576.2000,0.0000,0.0000,0.0000,
276,500.18,19992.83,-19992.83,2660.0000,65535.0000,3189.0000,529.0000,0.0000,0.0000,0.0000,
277,500.70,19972.06,-19972.06,2338.8000,65535.0000,2848.4000,509.6000,0.0000,0.0000,0.0000,
278,501.22,19951.34,-19951.34,2375.8000,65535.0000,2873.4000,497.6000,0.0000,0.0000,0.0000,
279,501.74,19930.66,-19930.66,2453.8000,65535.0000,2970.8000,517.0000,0.0000,0.0000,0.0000,
280,502.26,19910.04,-19910.04,2337.4000,65535.0000,2907.0000,569.6000,0.0000,0.0000,0.0000,
281,502.78,19889.47,-19889.47,2548.8000,65535.0000,3114.4000,565.6000,0.0000,0.0000,0.0000,
282,503.30,19868.95,-19868.95,2545.4000,65535.0000,3116.2000,570.8000,0.0000,0.0000,0.0000,
283,503.82,19848.48,-19848.48,2548.4000,65535.0000,3097.4000,549.0000,0.0000,0.0000,0.0000,
284,504.34,19828.06,-19828.06,2292.4000,65535.0000,2874.4000,582.0000,0.0000,0.0000,0.0000,
285,504.85,19807.69,-19807.69,2252.4000,65535.0000,2776.0000,523.6000,0.0000,0.0000,0.0000,
286,505.37,19787.38,-19787.38,2257.2000,65535.0000,2872.6000,615.4000,0.0000,0.0000,0.0000,
287,505.89,19767.11,-19767.11,2240.8000,65535.0000,2851.6000,610.8000,0.0000,0.0000,0.0000,
288,506.41,19746.89,-19746.89,1945.0000,65535.0000,2576.0000,631.0000,0.0000,0.0000,0.0000,
289,506.93,19726.72,-19726.72,2150.4000,65535.0000,2731.6000,581.2000,0.0000,0.0000,0.0000,
290,507.44,19706.59,-19706.59,2352.8000,65535.0000,2960.0000,607.2000,0.0000,0.0000,0.0000,
291,507.96,19686.52,-19686.52,2003.2000,65535.0000,2671.2000,668.0000,0.0000,0.0000,0.0000,
292,508.48,19666.50,-19666.50,2101.8000,65535.0000,2743.6000,641.8000,0.0000,0.0000,0.0000,
293,509.00,19646.52,-19646.52,2135.2000,65535.0000,2811.2000,676.0000,0.0000,0.0000,0.0000,
294,509.51,19626.60,-19626.60,2298.4000,65535.0000,2939.0000,640.6000,0.0000,0.0000,0.0000,
295,510.03,19606.72,-19606.72,2704.6000,65535.0000,3371.8000,667.2000,0.0000,0.0000,0.0000,
296,510.55,19586.89,-19586.89,2126.8000,65535.0000,2760.4000,633.6000,0.0000,0.0000,0.0000,
297,511.06,19567.11,-19567.11,2640.4000,65535.0000,3341.6000,701.2000,0.0000,0.0000,0.0000,
298,511.58,19547.38,-19547.38,2124.4000,65535.0000,2801.2000,676.8000,0.0000,0.0000,0.0000,
299,512.09,19527.69,-19527.69,2343.6000,65535.0000,2992.2000,648.6000,0.0000,0.0000,0.0000,
300,512.61,19508.05,-19508.05,3091.4000,65535.0000,3727.4000,636.0000,0.0000,0.0000,0.0000,
301,513.12,19488.46,-19488.46,3208.4000,65535.0000,3917.0000,708.6000,0.0000,0.0000,0.0000,
302,513.64,19468.92,-19468.92,2697.8000,65535.0000,3419.4000,721.6000,0.0000,0.0000,0.0000,
303,514.15,19449.42,-19449.42,2258.8000,65535.0000,2965.2000,706.4000,0.0000,0.0000,0.0000,
304,514.67,19429.97,-19429.97,2090.4000,65535.0000,2789.0000,698.6000,0.0000,0.0000,0.0000,
305,515.18,19410.56,-19410.56,2193.4000,65535.0000,2966.8000,773.4000,0.0000,0.0000,0.0000,
306,515.70,19391.21,-19391.21,2407.0000,65535.0000,3135.4000,728.4000,0.0000,0.0000,0.0000,
307,516.21,19371.90,-19371.90,2607.4000,65535.0000,3384.2000,776.8000,0.0000,0.0000,0.0000,
308,516.73,19352.63,-19352.63,2557.2000,65535.0000,3327.8000,770.6000,0.0000,0.0000,0.0000,
309,517.24,19333.41,-19333.41,2037.6000,65535.0000,2801.2000,763.6000,0.0000,0.0000,0.0000,
310,517.75,19314.24,-19314.24,2085.0000,65535.0000,2843.2000,758.2000,0.0000,0.0000,0.0000,
311,518.27,19295.11,-19295.11,3301.4000,65535.0000,4075.2000,773.8000,0.0000,0.0000,0.0000,
312,518.78,19276.03,-19276.03,2113.0000,65535.0000,2913.4000,800.4000,0.0000,0.0000,0.0000,
313,519.29,19257.00,-19257.00,2327.8000,65535.0000,3133.2000,805.4000,0.0000,0.0000,0.0000,
314,519.80,19238.01,-19238.01,2469.4000,65535.0000,3251.2000,781.8000,0.0000,0.0000,0.0000,
315,520.32,19219.06,-19219.06,1931.6000,65535.0000,2758.2000,826.6000,0.0000,0.0000,0.0000,
316,520.83,19200.16,-19200.16,2292.4000,65535.0000,3131.2000,838.8000,0.0000,0.0000,0.0000,
317,521.34,19181.30,-19181.30,2657.0000,65535.0000,3503.4000,846.4000,0.0000,0.0000,0.0000,
318,521.85,19162.49,-19162.49,2318.0000,65535.0000,3160.6000,842.6000,0.0000,0.0000,0.0000,
319,522.36,19143.73,-19143.73,2894.6000,65535.0000,3773.6000,879.0000,0.0000,0.0000,0.0000,
320,522.88,19125.00,-19125.00,2339.8000,65535.0000,3183.2000,843.4000,0.0000,0.0000,0.0000,
321,523.39,19106.33,-19106.33,2494.4000,65535.0000,3383.8000,889.4000,0.0000,0.0000,0.0000,
322,523.90,19087.69,-19087.69,2722.8000,65535.0000,3614.4000,891.6000,0.0000,0.0000,0.0000,
323,524.41,19069.10,-19069.10,2618.8000,65535.0000,3546.4000,927.6000,0.0000,0.0000,0.0000,
324,524.92,19050.55,-19050.55,2375.2000,65535.0000,3252.0000,876.8000,0.0000,0.0000,0.0000,
325,525.43,19032.05,-19032.05,2853.4000,65535.0000,3725.4000,872.0000,0.0000,0.0000,0.0000,
326,525.94,19013.59,-19013.59,2198.6000,65535.0000,3047.6000,849.0000,0.0000,0.0000,0.0000,
327,526.45,18995.17,-18995.17,2256.8000,65535.0000,3174.8000,918.0000,0.0000,0.0000,0.0000,
328,526.96,18976.80,-18976.80,2060.6000,65535.0000,2967.2000,906.6000,0.0000,0.0000,0.0000,
329,527.47,18958.47,-18958.47,2561.4000,65535.0000,3523.0000,961.6000,0.0000,0.0000,0.0000,
330,527.98,18940.18,-18940.18,1958.6000,65535.0000,2908.0000,949.4000,0.0000,0.0000,0.0000,
331,528.49,18921.94,-18921.94,2259.6000,65535.0000,3216.0000,956.4000,0.0000,0.0000,0.0000,
332,529.00,18903.74,-18903.74,2159.8000,65535.0000,3088.8000,929.0000,0.0000,0.0000,0.0000,
333,529.50,18885.58,-18885.58,2124.0000,65535.0000,3090.0000,966.0000,0.0000,0.0000,0.0000,
334,530.01,18867.46,-18867.46,2019.0000,65535.0000,2969.0000,950.0000,0.0000,0.0000,0.0000,
335,530.52,18849.38,-18849.38,2151.8000,65535.0000,3135.6000,983.8000,0.0000,0.0000,0.0000,
336,531.03,18831.35,-18831.35,2385.0000,65535.0000,3376.4000,991.4000,0.0000,0.0000,0.0000,
337,531.54,18813.36,-18813.36,2710.4000,65535.0000,3658.6000,948.2000,0.0000,0.0000,0.0000,
338,532.04,18795.41,-18795.41,2451.4000,65535.0000,3427.8000,976.4000,0.0000,0.0000,0.0000,
339,532.55,18777.50,-18777.50,2221.2000,65535.0000,3217.2000,996.0000,0.0000,0.0000,0.0000,
340,533.06,18759.63,-18759.63,2351.8000,65535.0000,3352.2000,1000.4000,0.0000,0.0000,0.0000,
341,533.57,18741.80,-18741.80,2634.4000,65535.0000,3676.6000,1042.2000,0.0000,0.0000,0.0000,
342,534.07,18724.02,-18724.02,2022.4000,65535.0000,3026.2000,1003.8000,0.0000,0.0000,0.0000,
343,534.58,18706.28,-18706.28,2096.8000,65535.0000,3107.4000,1010.6000,0.0000,0.0000,0.0000,
344,535.09,18688.57,-18688.57,2242.2000,65535.0000,3231.6000,989.4000,0.0000,0.0000,0.0000,
345,535.59,18670.91,-18670.91,2793.2000,65535.0000,3801.8000,1008.6000,0.0000,0.0000,0.0000,
346,536.10,18653.29,-18653.29,3229.6000,65535.0000,4268.8000,1039.2000,0.0000,0.0000,0.0000,
347,536.60,18635.71,-18635.71,2321.2000,65535.0000,3362.0000,1040.8000,0.0000,0.0000,0.0000,
348,537.11,18618.17,-18618.17,2042.8000,65535.0000,3055.4000,1012.6000,0.0000,0.0000,0.0000,
349,537.62,18600.67,-18600.67,2506.2000,65535.0000,3539.6000,1033.4000,0.0000,0.0000,0.0000,
350,538.12,18583.21,-18583.21,2102.8000,65535.0000,3138.6000,1035.8000,0.0000,0.0000,0.0000,
351,538.63,18565.78,-18565.78,2081.8000,65535.0000,3094.8000,1013.0000,0.0000,0.0000,0.0000,
352,539.13,18548.40,-18548.40,2589.6000,65535.0000,3642.4000,1052.8000,0.0000,0.0000,0.0000,
353,539.63,18531.06,-18531.06,2167.2000,65535.0000,3183.2000,1016.0000,0.0000,0.0000,0.0000,
354,540.14,18513.76,-18513.76,2211.6000,65535.0000,3271.2000,1059.6000,0.0000,0.0000,0.0000,
355,540.64,18496.50,-18496.50,2358.2000,65535.0000,3409.2000,1051.0000,0.0000,0.0000,0.0000,
356,541.15,18479.28,-18479.28,2476.6000,65535.0000,3556.6000,1080.0000,0.0000,0.0000,0.0000,
357,541.65,18462.09,-18462.09,2150.0000,65535.0000,3188.8000,1038.8000,0.0000,0.0000,0.0000,
358,542.15,18444.95,-18444.95,2190.6000,65535.0000,3219.0000,1028.4000,0.0000,0.0000,0.0000,
359,542.66,18427.84,-18427.84,2588.6000,65535.0000,3619.8000,1031.2000,0.0000,0.0000,0.0000,
360,543.16,18410.77,-18410.77,2083.2000,65535.0000,3144.2000,1061.0000,0.0000,0.0000,0.0000,
361,543.66,18393.74,-18393.74,2771.6000,65535.0000,3837.4000,1065.8000,0.0000,0.0000,0.0000,
362,544.17,18376.75,-18376.75,2679.6000,65535.0000,3760.4000,1080.8000,0.0000,0.0000,0.0000,
363,544.67,18359.80,-18359.80,3131.4000,65535.0000,4202.2000,1070.8000,0.0000,0.0000,0.0000,
364,545.17,18342.89,-18342.89,2500.8000,65535.0000,3573.0000,1072.2000,0.0000,0.0000,0.0000,
365,545.67,18326.01,-18326.01,2490.4000,65535.0000,3640.8000,1150.4000,0.0000,0.0000,0.0000,
366,546.17,18309.17,-18309.17,2485.4000,65535.0000,3593.4000,1108.0000,0.0000,0.0000,0.0000,
367,546.68,18292.37,-18292.37,2431.0000,65535.0000,3514.6000,1083.6000,0.0000,0.0000,0.0000,
368,547.18,18275.61,-18275.61,3205.0000,65535.0000,4254.6000,1049.6000,0.0000,0.0000,0.0000,
369,547.68,18258.89,-18258.89,2394.8000,65535.0000,3512.6000,1117.8000,0.0000,0.0000,0.0000,
370,548.18,18242.20,-18242.20,2334.0000,65535.0000,3473.8000,1139.8000,0.0000,0.0000,0.0000,
371,548.68,18225.55,-18225.55,2067.8000,65535.0000,3217.0000,1149.2000,0.0000,0.0000,0.0000,
372,549.18,18208.94,-18208.94,2627.2000,65535.0000,3782.8000,1155.6000,0.0000,0.0000,0.0000,
373,549.68,18192.37,-18192.37,2147.0000,65535.0000,3323.0000,1176.0000,0.0000,0.0000,0.0000,
374,550.18,18175.83,-18175.83,2758.4000,65535.0000,3928.0000,1169.6000,0.0000,0.0000,0.0000,
375,550.68,18159.33,-18159.33,2252.0000,65535.0000,3462.6000,1210.6000,0.0000,0.0000,0.0000,
376,551.18,18142.86,-18142.86,2178.4000,65535.0000,3377.4000,1199.0000,0.0000,0.0000,0.0000,
377,551.68,18126.43,-18126.43,2393.0000,65535.0000,3617.4000,1224.4000,0.0000,0.0000,0.0000,
378,552.18,18110.04,-18110.04,2642.4000,65535.0000,3845.8000,1203.4000,0.0000,0.0000,0.0000,
379,552.68,18093.69,-18093.69,2676.6000,65535.0000,3893.4000,1216.8000,0.0000,0.0000,0.0000,
380,553.18,18077.37,-18077.37,2569.8000,65535.0000,3828.4000,1258.6000,0.0000,0.0000,0.0000,
381,553.68,18061.09,-18061.09,2293.2000,65535.0000,3532.2000,1239.0000,0.0000,0.0000,0.0000,
382,554.18,18044.84,-18044.84,2184.6000,65535.0000,3434.6000,1250.0000,0.0000,0.0000,0.0000,
383,554.67,18028.63,-18028.63,2323.8000,65535.0000,3559.6000,1235.8000,0.0000,0.0000,0.0000,
384,555.17,18012.46,-18012.46,2424.4000,65535.0000,3671.2000,1246.8000,0.0000,0.0000,0.0000,
385,555.67,17996.32,-17996.32,2122.8000,65535.0000,3341.6000,1218.8000,0.0000,0.0000,0.0000,
386,556.17,17980.22,-17980.22,2379.8000,65535.0000,3627.8000,1248.0000,0.0000,0.0000,0.0000,
387,556.66,17964.15,-17964.15,2519.8000,65535.0000,3773.6000,1253.8000,0.0000,0.0000,0.0000,
388,557.16,17948.12,-17948.12,2139.6000,65535.0000,3428.2000,1288.6000,0.0000,0.0000,0.0000,
389,557.66,17932.12,-17932.12,2615.0000,65535.0000,3928.8000,1313.8000,0.0000,0.0000,0.0000,
390,558.16,17916.16,-17916.16,2030.2000,65535.0000,3338.6000,1308.4000,0.0000,0.0000,0.0000,
391,558.65,17900.23,-17900.23,2323.6000,65535.0000,3655.0000,1331.4000,0.0000,0.0000,0.0000,
392,559.15,17884.34,-17884.34,2236.6000,65535.0000,3529.0000,1292.4000,0.0000,0.0000,0.0000,
393,559.64,17868.48,-17868.48,2122.4000,65535.0000,3487.6000,1365.2000,0.0000,0.0000,0.0000,
394,560.14,17852.66,-17852.66,2097.6000,65535.0000,3481.8000,1384.2000,0.0000,0.0000,0.0000,
395,560.64,17836.87,-17836.87,2771.8000,65535.0000,4173.8000,1402.0000,0.0000,0.0000,0.0000,
396,561.13,17821.12,-17821.12,2371.6000,65535.0000,3768.2000,1396.6000,0.0000,0.0000,0.0000,
397,561.63,17805.40,-17805.40,2096.8000,65535.0000,3439.4000,1342.6000,0.0000,0.0000,0.0000,
398,562.12,17789.72,-17789.72,2182.2000,65535.0000,3544.4000,1362.2000,0.0000,0.0000,0.0000,
399,562.62,17774.07,-17774.07,2606.2000,65535.0000,3995.0000,1388.8000,0.0000,0.0000,0.0000,
400,563.11,17758.45,-17758.45,2829.2000,65535.0000,4250.4000,1421.2000,0.0000,0.0000,0.0000,
401,563.61,17742.87,-17742.87,2188.4000,65535.0000,3617.8000,1429.4000,0.0000,0.0000,0.0000,
402,564.10,17727.32,-17727.32,2078.2000,65535.0000,3497.2000,1419.0000,0.0000,0.0000,0.0000,
403,564.60,17711.81,-17711.81,2601.0000,65535.0000,4045.8000,1444.8000,0.0000,0.0000,0.0000,
404,565.09,17696.33,-17696.33,2648.2000,65535.0000,4081.8000,1433.6000,0.0000,0.0000,0.0000,
405,565.58,17680.88,-17680.88,4031.0000,65535.0000,5526.0000,1495.0000,0.0000,0.0000,0.0000,
406,566.08,17665.47,-17665.47,2130.4000,65535.0000,3616.2000,1485.8000,0.0000,0.0000,0.0000,
407,566.57,17650.09,-17650.09,1996.4000,65535.0000,3500.2000,1503.8000,0.0000,0.0000,0.0000,
408,567.06,17634.74,-17634.74,2306.0000,65535.0000,3828.8000,1522.8000,0.0000,0.0000,0.0000,
409,567.56,17619.42,-17619.42,2464.8000,65535.0000,3993.4000,1528.6000,0.0000,0.0000,0.0000,
410,568.05,17604.14,-17604.14,2559.2000,65535.0000,4067.4000,1508.2000,0.0000,0.0000,0.0000,
411,568.54,17588.90,-17588.90,2641.6000,65535.0000,4158.6000,1517.0000,0.0000,0.0000,0.0000,
412,569.03,17573.68,-17573.68,2941.8000,65535.0000,4467.8000,1526.0000,0.0000,0.0000,0.0000,
413,569.52,17558.50,-17558.50,2849.4000,65535.0000,4359.4000,1510.0000,0.0000,0.0000,0.0000,
414,570.02,17543.35,-17543.35,2398.4000,65535.0000,3949.2000,1550.8000,0.0000,0.0000,0.0000,
415,570.51,17528.23,-17528.23,2458.0000,65535.0000,3973.0000,1515.0000,0.0000,0.0000,0.0000,
416,571.00,17513.15,-17513.15,2623.8000,65535.0000,4158.8000,1535.0000,0.0000,0.0000,0.0000,
417,571.49,17498.09,-17498.09,2286.6000,65535.0000,3878.0000,1591.4000,0.0000,0.0000,0.0000,
418,571.98,17483.07,-17483.07,2355.0000,65535.0000,3928.4000,1573.4000,0.0000,0.0000,0.0000,
419,572.47,17468.08,-17468.08,2523.4000,65535.0000,4101.6000,1578.2000,0.0000,0.0000,0.0000,
420,572.96,17453.13,-17453.13,2213.2000,65535.0000,3761.6000,1548.4000,0.0000,0.0000,0.0000,
421,573.45,17438.20,-17438.20,2242.6000,65535.0000,3811.8000,1569.2000,0.0000,0.0000,0.0000,
422,573.94,17423.31,-17423.31,2478.8000,65535.0000,4047.0000,1568.2000,0.0000,0.0000,0.0000,
423,574.43,17408.45,-17408.45,2581.4000,65535.0000,4167.6000,1586.2000,0.0000,0.0000,0.0000,
424,574.92,17393.62,-17393.62,2036.6000,65535.0000,3617.4000,1580.8000,0.0000,0.0000,0.0000,
425,575.41,17378.82,-17378.82,2149.8000,65535.0000,3724.6000,1574.8000,0.0000,0.0000,0.0000,
426,575.90,17364.06,-17364.06,2357.6000,65535.0000,3943.4000,1585.8000,0.0000,0.0000,0.0000,
427,576.39,17349.32,-17349.32,2558.0000,65535.0000,4155.6000,1597.6000,0.0000,0.0000,0.0000,
428,576.88,17334.62,-17334.62,2271.0000,65535.0000,3927.4000,1656.4000,0.0000,0.0000,0.0000,
429,577.37,17319.95,-17319.95,2800.4000,65535.0000,4419.8000,1619.4000,0.0000,0.0000,0.0000,
430,577.86,17305.31,-17305.31,2260.0000,65535.0000,3857.6000,1597.6000,0.0000,0.0000,0.0000,
431,578.35,17290.70,-17290.70,2678.8000,65535.0000,4280.6000,1601.8000,0.0000,0.0000,0.0000,
432,578.83,17276.12,-17276.12,2050.2000,65535.0000,3705.4000,1655.2000,0.0000,0.0000,0.0000,
433,579.32,17261.57,-17261.57,2049.2000,65535.0000,3698.6000,1649.4000,0.0000,0.0000,0.0000,
434,579.81,17247.05,-17247.05,2542.0000,65535.0000,4227.6000,1685.6000,0.0000,0.0000,0.0000,
435,580.30,17232.56,-17232.56,2269.4000,65535.0000,3930.2000,1660.8000,0.0000,0.0000,0.0000,
436,580.78,17218.10,-17218.10,2517.8000,65535.0000,4225.4000,1707.6000,0.0000,0.0000,0.0000,
437,581.27,17203.68,-17203.68,2236.8000,65535.0000,3928.6000,1691.8000,0.0000,0.0000,0.0000,
438,581.76,17189.28,-17189.28,2234.4000,65535.0000,3875.0000,1640.6000,0.0000,0.0000,0.0000,
439,582.24,17174.92,-17174.92,2430.4000,65535.0000,4136.4000,1706.0000,0.0000,0.0000,0.0000,
440,582.73,17160.58,-17160.58,2625.0000,65535.0000,4257.2000,1632.2000,0.0000,0.0000,0.0000,
441,583.22,17146.27,-17146.27,2546.8000,65535.0000,4285.2000,1738.4000,0.0000,0.0000,0.0000,
442,583.70,17132.00,-17132.00,2623.0000,65535.0000,4255.2000,1632.2000,0.0000,0.0000,0.0000,
443,584.19,17117.75,-17117.75,2426.8000,65535.0000,4171.8000,1745.0000,0.0000,0.0000,0.0000,
444,584.67,17103.54,-17103.54,2263.2000,65535.0000,3980.6000,1717.4000,0.0000,0.0000,0.0000,
445,585.16,17089.35,-17089.35,2701.4000,65535.0000,4404.6000,1703.2000,0.0000,0.0000,0.0000,
446,585.64,17075.19,-17075.19,2119.2000,65535.0000,3895.8000,1776.6000,0.0000,0.0000,0.0000,
447,586.13,17061.07,-17061.07,2211.8000,65535.0000,3976.8000,1765.0000,0.0000,0.0000,0.0000,
448,586.61,17046.97,-17046.97,2619.6000,65535.0000,4300.2000,1680.6000,0.0000,0.0000,0.0000,
449,587.10,17032.90,-17032.90,2905.0000,65535.0000,4669.6000,1764.6000,0.0000,0.0000,0.0000,
450,587.58,17018.86,-17018.86,2237.8000,65535.0000,3958.0000,1720.2000,0.0000,0.0000,0.0000,
451,588.07,17004.85,-17004.85,2476.2000,65535.0000,4290.4000,1814.2000,0.0000,0.0000,0.0000,
452,588.55,16990.87,-16990.87,2428.4000,65535.0000,4199.0000,1770.6000,0.0000,0.0000,0.0000,
453,589.04,16976.92,-16976.92,2306.2000,65535.0000,4080.6000,1774.4000,0.0000,0.0000,0.0000,
454,589.52,16962.99,-16962.99,2641.2000,65535.0000,4410.6000,1769.4000,0.0000,0.0000,0.0000,
455,590.00,16949.10,-16949.10,2548.6000,65535.0000,4266.0000,1717.4000,0.0000,0.0000,0.0000,
456,590.48,16935.23,-16935.23,2400.0000,65535.0000,4128.2000,1728.2000,0.0000,0.0000,0.0000,
457,590.97,16921.40,-16921.40,2306.8000,65535.0000,4132.0000,1825.2000,0.0000,0.0000,0.0000,
458,591.45,16907.59,-16907.59,2096.0000,65535.0000,3930.2000,1834.2000,0.0000,0.0000,0.0000,
459,591.93,16893.81,-16893.81,2381.6000,65535.0000,4163.8000,1782.2000,0.0000,0.0000,0.0000,
460,592.42,16880.06,-16880.06,2236.0000,65535.0000,4065.6000,1829.6000,0.0000,0.0000,0.0000,
461,592.90,16866.33,-16866.33,2841.4000,65535.0000,4642.4000,1801.0000,0.0000,0.0000,0.0000,
462,593.38,16852.64,-16852.64,2206.2000,65535.0000,4091.4000,1885.2000,0.0000,0.0000,0.0000,
463,593.86,16838.97,-16838.97,2371.4000,65535.0000,4246.2000,1874.8000,0.0000,0.0000,0.0000,
464,594.34,16825.33,-16825.33,2645.2000,65535.0000,4501.4000,1856.2000,0.0000,0.0000,0.0000,
465,594.82,16811.72,-16811.72,2693.8000,65535.0000,4537.8000,1844.0000,0.0000,0.0000,0.0000,
466,595.30,16798.14,-16798.14,2154.4000,65535.0000,4056.6000,1902.2000,0.0000,0.0000,0.0000,
467,595.78,16784.58,-16784.58,2475.8000,65535.0000,4392.2000,1916.4000,0.0000,0.0000,0.0000,
468,596.27,16771.05,-16771.05,2537.0000,65535.0000,4478.4000,1941.4000,0.0000,0.0000,0.0000,
469,596.75,16757.55,-16757.55,2401.8000,65535.0000,4381.6000,1979.8000,0.0000,0.0000,0.0000,
470,597.23,16744.08,-16744.08,2471.2000,65535.0000,4422.0000,1950.8000,0.0000,0.0000,0.0000,
471,597.71,16730.64,-16730.64,2540.2000,65535.0000,4496.8000,1956.6000,0.0000,0.0000,0.0000,
472,598.19,16717.22,-16717.22,1934.2000,65535.0000,3831.2000,1897.0000,0.0000,0.0000,0.0000,
473,598.67,16703.83,-16703.83,2134.8000,65535.0000,4034.0000,1899.2000,0.0000,0.0000,0.0000,
474,599.14,16690.47,-16690.47,2267.6000,65535.0000,4207.8000,1940.2000,0.0000,0.0000,0.0000,
475,599.62,16677.13,-16677.13,2713.6000,65535.0000,4642.8000,1929.2000,0.0000,0.0000,0.0000,
476,600.10,16663.82,-16663.82,2584.4000,65535.0000,4540.0000,1955.6000,0.0000,0.0000,0.0000,
477,600.58,16650.54,-16650.54,2273.4000,65535.0000,4263.8000,1990.4000,0.0000,0.0000,0.0000,
478,601.06,16637.29,-16637.29,2362.0000,65535.0000,4367.2000,2005.2000,0.0000,0.0000,0.0000,
479,601.54,16624.06,-16624.06,2690.8000,65535.0000,4667.2000,1976.4000,0.0000,0.0000,0.0000,
480,602.02,16610.86,-16610.86,2555.8000,65535.0000,4535.4000,1979.6000,0.0000,0.0000,0.0000,
481,602.49,16597.68,-16597.68,3142.2000,65535.0000,5190.8000,2048.6000,0.0000,0.0000,0.0000,
482,602.97,16584.54,-16584.54,2322.0000,65535.0000,4294.8000,1972.8000,0.0000,0.0000,0.0000,
483,603.45,16571.42,-16571.42,2316.2000,65535.0000,4332.0000,2015.8000,0.0000,0.0000,0.0000,
484,603.93,16558.32,-16558.32,4672.6000,65535.0000,6816.6000,2144.0000,0.0000,0.0000,0.0000,
485,604.40,16545.25,-16545.25,2348.6000,65535.0000,4438.8000,2090.2000,0.0000,0.0000,0.0000,
486,604.88,16532.21,-16532.21,2451.4000,65535.0000,4542.2000,2090.8000,0.0000,0.0000,0.0000,
487,605.36,16519.20,-16519.20,2897.8000,65535.0000,4984.4000,2086.6000,0.0000,0.0000,0.0000,
488,605.83,16506.21,-16506.21,2850.6000,65535.0000,5011.0000,2160.4000,0.0000,0.0000,0.0000,
489,606.31,16493.24,-16493.24,2404.6000,65535.0000,4462.4000,2057.8000,0.0000,0.0000,0.0000,
490,606.78,16480.31,-16480.31,1958.6000,65535.0000,4084.4000,2125.8000,0.0000,0.0000,0.0000,
491,607.26,16467.39,-16467.39,2189.6000,65535.0000,4259.4000,2069.8000,0.0000,0.0000,0.0000,
492,607.74,16454.51,-16454.51,2185.6000,65535.0000,4285.8000,2100.2000,0.0000,0.0000,0.0000,
493,608.21,16441.65,-16441.65,2272.6000,65535.0000,4448.6000,2176.0000,0.0000,0.0000,0.0000,
494,608.69,16428.82,-16428.82,2276.6000,65535.0000,4399.2000,2122.6000,0.0000,0.0000,0.0000,
495,609.16,16416.01,-16416.01,2304.4000,65535.0000,4434.8000,2130.4000,0.0000,0.0000,0.0000,
496,609.64,16403.22,-16403.22,2716.6000,65535.0000,4849.8000,2133.2000,0.0000,0.0000,0.0000,
497,610.11,16390.47,-16390.47,2905.4000,65535.0000,5048.8000,2143.4000,0.0000,0.0000,0.0000,
498,610.59,16377.73,-16377.73,2278.4000,65535.0000,4456.2000,2177.8000,0.0000,0.0000,0.0000,
499,611.06,16365.03,-16365.03,2428.2000,65535.0000,4513.4000,2085.2000,0.0000,0.0000,0.0000,
500,611.53,16352.35,-16352.35,2334.2000,65535.0000,4473.2000,2139.0000,0.0000,0.0000,0.0000,
501,612.01,16339.69,-16339.69,2657.0000,65535.0000,4783.6000,2126.6000,0.0000,0.0000,0.0000,
502,612.48,16327.06,-16327.06,3289.0000,65535.0000,5385.2000,2096.2000,0.0000,0.0000,0.0000,
503,612.95,16314.46,-16314.46,2494.4000,65535.0000,4699.8000,2205.4000,0.0000,0.0000,0.0000,
504,613.43,16301.87,-16301.87,2947.8000,65535.0000,5166.2000,2218.4000,0.0000,0.0000,0.0000,
505,613.90,16289.32,-16289.32,2819.4000,65535.0000,5022.2000,2202.8000,0.0000,0.0000,0.0000,
506,614.37,16276.79,-16276.79,2675.6000,65535.0000,4885.8000,2210.2000,0.0000,0.0000,0.0000,
507,614.84,16264.28,-16264.28,2877.0000,65535.0000,5126.4000,2249.4000,0.0000,0.0000,0.0000,
508,615.32,16251.80,-16251.80,2632.8000,65535.0000,4853.4000,2220.6000,0.0000,0.0000,0.0000,
509,615.79,16239.34,-16239.34,2764.8000,65535.0000,4984.0000,2219.2000,0.0000,0.0000,0.0000,
510,616.26,16226.91,-16226.91,2218.6000,65535.0000,4491.2000,2272.6000,0.0000,0.0000,0.0000,
511,616.73,16214.50,-16214.50,2525.2000,65535.0000,4815.2000,2290.0000,0.0000,0.0000,0.0000,
512,617.20,16202.12,-16202.12,2677.4000,65535.0000,4949.0000,2271.6000,0.0000,0.0000,0.0000,
513,617.67,16189.76,-16189.76,2156.4000,65535.0000,4468.4000,2312.0000,0.0000,0.0000,0.0000,
514,618.15,16177.43,-16177.43,2062.0000,65535.0000,4361.4000,2299.4000,0.0000,0.0000,0.0000,
515,618.62,16165.12,-16165.12,2119.2000,65535.0000,4416.4000,2297.2000,0.0000,0.0000,0.0000,
516,619.09,16152.83,-16152.83,2179.0000,65535.0000,4459.2000,2280.2000,0.0000,0.0000,0.0000,
517,619.56,16140.57,-16140.57,2207.6000,65535.0000,4485.8000,2278.2000,0.0000,0.0000,0.0000,
518,620.03,16128.33,-16128.33,2394.8000,65535.0000,4669.6000,2274.8000,0.0000,0.0000,0.0000,
519,620.50,16116.12,-16116.12,2156.0000,65535.0000,4532.8000,2376.8000,0.0000,0.0000,0.0000,
520,620.97,16103.93,-16103.93,2242.4000,65535.0000,4573.6000,2331.2000,0.0000,0.0000,0.0000,
521,621.44,16091.76,-16091.76,2859.4000,65535.0000,5171.2000,2311.8000,0.0000,0.0000,0.0000,
522,621.91,16079.62,-16079.62,2116.2000,65535.0000,4439.8000,2323.6000,0.0000,0.0000,0.0000,
523,622.37,16067.50,-16067.50,2208.2000,65535.0000,4478.2000,2270.0000,0.0000,0.0000,0.0000,
524,622.84,16055.41,-16055.41,2415.4000,65535.0000,4696.4000,2281.0000,0.0000,0.0000,0.0000,
525,623.31,16043.33,-16043.33,2522.2000,65535.0000,4811.0000,2288.8000,0.0000,0.0000,0.0000,
526,623.78,16031.29,-16031.29,2485.6000,65535.0000,4791.8000,2306.2000,0.0000,0.0000,0.0000,
527,624.25,16019.26,-16019.26,2389.4000,65535.0000,4716.0000,2326.6000,0.0000,0.0000,0.0000,
528,624.72,16007.26,-16007.26,2384.8000,65535.0000,4705.8000,2321.0000,0.0000,0.0000,0.0000,
529,625.18,15995.28,-15995.28,2003.0000,65535.0000,4271.8000,2268.8000,0.0000,0.0000,0.0000,
530,625.65,15983.33,-15983.33,2342.6000,65535.0000,4684.8000,2342.2000,0.0000,0.0000,0.0000,
531,626.12,15971.40,-15971.40,2143.0000,65535.0000,4484.6000,2341.6000,0.0000,0.0000,0.0000,
532,626.59,15959.49,-15959.49,2642.2000,65535.0000,4932.8000,2290.6000,0.0000,0.0000,0.0000,
533,627.05,15947.60,-15947.60,2339.0000,65535.0000,4689.0000,2350.0000,0.0000,0.0000,0.0000,
534,627.52,15935.74,-15935.74,2803.0000,65535.0000,5147.0000,2344.0000,0.0000,0.0000,0.0000,
535,627.99,15923.90,-15923.90,2148.2000,65535.0000,4502.0000,2353.8000,0.0000,0.0000,0.0000,
536,628.45,15912.09,-15912.09,2322.0000,65535.0000,4633.4000,2311.4000,0.0000,0.0000,0.0000,
537,628.92,15900.29,-15900.29,2287.2000,65535.0000,4592.2000,2305.0000,0.0000,0.0000,0.0000,
538,629.39,15888.52,-15888.52,2391.6000,65535.0000,4681.0000,2289.4000,0.0000,0.0000,0.0000,
539,629.85,15876.78,-15876.78,2329.8000,65535.0000,4622.4000,2292.6000,0.0000,0.0000,0.0000,
540,630.32,15865.05,-15865.05,2799.4000,65535.0000,5148.4000,2349.0000,0.0000,0.0000,0.0000,
541,630.78,15853.35,-15853.35,2322.4000,65535.0000,4653.8000,2331.4000,0.0000,0.0000,0.0000,
542,631.25,15841.67,-15841.67,2539.6000,65535.0000,4847.4000,2307.8000,0.0000,0.0000,0.0000,
543,631.71,15830.01,-15830.01,2174.2000,65535.0000,4475.4000,2301.2000,0.0000,0.0000,0.0000,
544,632.18,15818.37,-15818.37,2123.0000,65535.0000,4460.0000,2337.0000,0.0000,0.0000,0.0000,
545,632.64,15806.76,-15806.76,2443.6000,65535.0000,4724.0000,2280.4000,0.0000,0.0000,0.0000,
546,633.10,15795.17,-15795.17,2484.6000,65535.0000,4783.2000,2298.6000,0.0000,0.0000,0.0000,
547,633.57,15783.60,-15783.60,2013.4000,65535.0000,4357.2000,2343.8000,0.0000,0.0000,0.0000,
548,634.03,15772.06,-15772.06,2035.0000,65535.0000,4346.2000,2311.2000,0.0000,0.0000,0.0000,
549,634.50,15760.53,-15760.53,2146.8000,65535.0000,4468.6000,2321.8000,0.0000,0.0000,0.0000,
550,634.96,15749.03,-15749.03,2650.6000,65535.0000,5041.8000,2391.2000,0.0000,0.0000,0.0000,
551,635.42,15737.55,-15737.55,1891.2000,65535.0000,4217.0000,2325.8000,0.0000,0.0000,0.0000,
552,635.89,15726.09,-15726.09,2369.6000,65535.0000,4718.4000,2348.8000,0.0000,0.0000,0.0000,
553,636.35,15714.65,-15714.65,2759.2000,65535.0000,5101.6000,2342.4000,0.0000,0.0000,0.0000,
554,636.81,15703.24,-15703.24,2617.6000,65535.0000,4982.6000,2365.0000,0.0000,0.0000,0.0000,
555,637.27,15691.85,-15691.85,2339.8000,65535.0000,4726.0000,2386.2000,0.0000,0.0000,0.0000,
556,637.74,15680.47,-15680.47,2233.2000,65535.0000,4569.6000,2336.4000,0.0000,0.0000,0.0000,
557,638.20,15669.12,-15669.12,2353.4000,65535.0000,4671.2000,2317.8000,0.0000,0.0000,0.0000,
558,638.66,15657.80,-15657.80,2161.2000,65535.0000,4494.2000,2333.0000,0.0000,0.0000,0.0000,
559,639.12,15646.49,-15646.49,2369.2000,65535.0000,4737.4000,2368.2000,0.0000,0.0000,0.0000,
560,639.58,15635.20,-15635.20,1980.8000,65535.0000,4333.6000,2352.8000,0.0000,0.0000,0.0000,
561,640.04,15623.94,-15623.94,2401.0000,65535.0000,4717.8000,2316.8000,0.0000,0.0000,0.0000,
562,640.50,15612.70,-15612.70,2146.0000,65535.0000,4519.0000,2373.0000,0.0000,0.0000,0.0000,
563,640.97,15601.48,-15601.48,2324.8000,65535.0000,4649.8000,2325.0000,0.0000,0.0000,0.0000,
564,641.43,15590.28,-15590.28,2026.8000,65535.0000,4340.8000,2314.0000,0.0000,0.0000,0.0000,
565,641.89,15579.10,-15579.10,2628.0000,65535.0000,5010.6000,2382.6000,0.0000,0.0000,0.0000,
566,642.35,15567.94,-15567.94,2257.4000,65535.0000,4642.4000,2385.0000,0.0000,0.0000,0.0000,
567,642.81,15556.80,-15556.80,2483.4000,65535.0000,4838.6000,2355.2000,0.0000,0.0000,0.0000,
568,643.27,15545.69,-15545.69,2227.2000,65535.0000,4557.0000,2329.8000,0.0000,0.0000,0.0000,
569,643.72,15534.59,-15534.59,2151.8000,65535.0000,4528.8000,2377.0000,0.0000,0.0000,0.0000,
570,644.18,15523.52,-15523.52,2423.4000,65535.0000,4788.8000,2365.4000,0.0000,0.0000,0.0000,
571,644.64,15512.46,-15512.46,2261.0000,65535.0000,4613.6000,2352.6000,0.0000,0.0000,0.0000,
572,645.10,15501.43,-15501.43,2834.2000,65535.0000,5170.4000,2336.2000,0.0000,0.0000,0.0000,
573,645.56,15490.42,-15490.42,3018.0000,65535.0000,5387.8000,2369.8000,0.0000,0.0000,0.0000,
574,646.02,15479.43,-15479.43,2280.6000,65535.0000,4620.4000,2339.8000,0.0000,0.0000,0.0000,
575,646.48,15468.46,-15468.46,2209.8000,65535.0000,4553.2000,2343.4000,0.0000,0.0000,0.0000,
576,646.93,15457.51,-15457.51,2305.2000,65535.0000,4652.8000,2347.6000,0.0000,0.0000,0.0000,
577,647.39,15446.58,-15446.58,2025.0000,65535.0000,4438.6000,2413.6000,0.0000,0.0000,0.0000,
578,647.85,15435.67,-15435.67,1878.2000,65535.0000,4341.2000,2463.0000,0.0000,0.0000,0.0000,
579,648.31,15424.78,-15424.78,2230.6000,65535.0000,4618.8000,2388.2000,0.0000,0.0000,0.0000,
580,648.76,15413.91,-15413.91,2159.0000,65535.0000,4542.2000,2383.2000,0.0000,0.0000,0.0000,
581,649.22,15403.07,-15403.07,2108.2000,65535.0000,4495.8000,2387.6000,0.0000,0.0000,0.0000,
582,649.68,15392.24,-15392.24,2304.8000,65535.0000,4719.4000,2414.6000,0.0000,0.0000,0.0000,
583,650.13,15381.43,-15381.43,2410.0000,65535.0000,4815.8000,2405.8000,0.0000,0.0000,0.0000,
584,650.59,15370.64,-15370.64,2135.2000,65535.0000,4565.8000,2430.6000,0.0000,0.0000,0.0000,
585,651.05,15359.88,-15359.88,2400.2000,65535.0000,4811.0000,2410.8000,0.0000,0.0000,0.0000,
586,651.50,15349.13,-15349.13,2005.0000,65535.0000,4419.0000,2414.0000,0.0000,0.0000,0.0000,
587,651.96,15338.40,-15338.40,2284.4000,65535.0000,4702.6000,2418.2000,0.0000,0.0000,0.0000,
588,652.41,15327.69,-15327.69,2268.4000,65535.0000,4683.0000,2414.6000,0.0000,0.0000,0.0000,
589,652.87,15317.01,-15317.01,2366.4000,65535.0000,4796.8000,2430.4000,0.0000,0.0000,0.0000,
590,653.32,15306.34,-15306.34,2337.8000,65535.0000,4797.8000,2460.0000,0.0000,0.0000,0.0000,
591,653.78,15295.69,-15295.69,2368.0000,65535.0000,4838.2000,2470.2000,0.0000,0.0000,0.0000,
592,654.23,15285.06,-15285.06,2059.6000,65535.0000,4528.6000,2469.0000,0.0000,0.0000,0.0000,
593,654.69,15274.45,-15274.45,2092.6000,65535.0000,4539.4000,2446.8000,0.0000,0.0000,0.0000,
594,655.14,15263.86,-15263.86,2359.6000,65535.0000,4805.2000,2445.6000,0.0000,0.0000,0.0000,
595,655.60,15253.29,-15253.29,2711.4000,65535.0000,5225.8000,2514.4000,0.0000,0.0000,0.0000,
596,656.05,15242.74,-15242.74,2610.8000,65535.0000,5144.6000,2533.8000,0.0000,0.0000,0.0000,
597,656.50,15232.21,-15232.21,2477.4000,65535.0000,4964.0000,2486.6000,0.0000,0.0000,0.0000,
598,656.96,15221.70,-15221.70,2320.6000,65535.0000,4756.6000,2436.0000,0.0000,0.0000,0.0000,
599,657.41,15211.21,-15211.21,2271.8000,65535.0000,4750.0000,2478.2000,0.0000,0.0000,0.0000,
600,657.86,15200.74,-15200.74,2132.6000,65535.0000,4647.6000,2515.0000,0.0000,0.0000,0.0000,
601,658.32,15190.29,-15190.29,2343.8000,65535.0000,4847.0000,2503.2000,0.0000,0.0000,0.0000,
602,658.77,15179.85,-15179.85,2180.6000,65535.0000,4631.8000,2451.2000,0.0000,0.0000,0.0000,
603,659.22,15169.44,-15169.44,2664.2000,65535.0000,5186.0000,2521.8000,0.0000,0.0000,0.0000,
604,659.67,15159.04,-15159.04,2394.0000,65535.0000,4948.2000,2554.2000,0.0000,0.0000,0.0000,
605,660.12,15148.66,-15148.66,2114.2000,65535.0000,4660.6000,2546.4000,0.0000,0.0000,0.0000,
606,660.58,15138.31,-15138.31,2445.6000,65535.0000,4987.2000,2541.6000,0.0000,0.0000,0.0000,
607,661.03,15127.97,-15127.97,2486.0000,65535.0000,5016.4000,2530.4000,0.0000,0.0000,0.0000,
608,661.48,15117.65,-15117.65,2728.0000,65535.0000,5335.0000,2607.0000,0.0000,0.0000,0.0000,
609,661.93,15107.35,-15107.35,2087.6000,65535.0000,4659.2000,2571.6000,0.0000,0.0000,0.0000,
610,662.38,15097.07,-15097.07,2056.2000,65535.0000,4592.8000,2536.6000,0.0000,0.0000,0.0000,
611,662.83,15086.80,-15086.80,2490.4000,65535.0000,5096.0000,2605.6000,0.0000,0.0000,0.0000,
612,663.28,15076.56,-15076.56,2248.4000,65535.0000,4797.4000,2549.0000,0.0000,0.0000,0.0000,
613,663.73,15066.33,-15066.33,2181.8000,65535.0000,4774.6000,2592.8000,0.0000,0.0000,0.0000,
614,664.18,15056.12,-15056.12,2341.4000,65535.0000,4910.4000,2569.0000,0.0000,0.0000,0.0000,
615,664.63,15045.93,-15045.93,2041.2000,65535.0000,4572.8000,2531.6000,0.0000,0.0000,0.0000,
616,665.08,15035.76,-15035.76,2573.8000,65535.0000,5116.6000,2542.8000,0.0000,0.0000,0.0000,
617,665.53,15025.61,-15025.61,2098.0000,65535.0000,4661.6000,2563.6000,0.0000,0.0000,0.0000,
618,665.98,15015.48,-15015.48,2052.8000,65535.0000,4643.6000,2590.8000,0.0000,0.0000,0.0000,
619,666.43,15005.36,-15005.36,2163.2000,65535.0000,4763.0000,2599.8000,0.0000,0.0000,0.0000,
620,666.88,14995.27,-14995.27,2667.2000,65535.0000,5285.6000,2618.4000,0.0000,0.0000,0.0000,
621,667.33,14985.19,-14985.19,2358.0000,65535.0000,4935.4000,2577.4000,0.0000,0.0000,0.0000,
622,667.77,14975.13,-14975.13,2344.4000,65535.0000,4931.2000,2586.8000,0.0000,0.0000,0.0000,
623,668.22,14965.09,-14965.09,2212.2000,65535.0000,4824.4000,2612.2000,0.0000,0.0000,0.0000,
624,668.67,14955.06,-14955.06,2125.2000,65535.0000,4734.2000,2609.0000,0.0000,0.0000,0.0000,
625,669.12,14945.06,-14945.06,2199.0000,65535.0000,4814.0000,2615.0000,0.0000,0.0000,0.0000,
626,669.56,14935.07,-14935.07,3029.4000,65535.0000,5591.8000,2562.4000,0.0000,0.0000,0.0000,
627,670.01,14925.10,-14925.10,2125.0000,65535.0000,4689.2000,2564.2000,0.0000,0.0000,0.0000,
628,670.46,14915.15,-14915.15,2111.0000,65535.0000,4675.4000,2564.4000,0.0000,0.0000,0.0000,
629,670.91,14905.22,-14905.22,2539.4000,65535.0000,5140.4000,2601.0000,0.0000,0.0000,0.0000,
630,671.35,14895.30,-14895.30,2313.2000,65535.0000,4879.0000,2565.8000,0.0000,0.0000,0.0000,
631,671.80,14885.40,-14885.40,2260.8000,65535.0000,4909.0000,2648.2000,0.0000,0.0000,0.0000,
632,672.25,14875.52,-14875.52,2829.6000,65535.0000,5497.0000,2667.4000,0.0000,0.0000,0.0000,
633,672.69,14865.66,-14865.66,2204.8000,65535.0000,4816.2000,2611.4000,0.0000,0.0000,0.0000,
634,673.14,14855.82,-14855.82,2005.8000,65535.0000,4578.8000,2573.0000,0.0000,0.0000,0.0000,
635,673.58,14845.99,-14845.99,2125.4000,65535.0000,4794.8000,2669.4000,0.0000,0.0000,0.0000,
636,674.03,14836.18,-14836.18,2156.4000,65535.0000,4785.0000,2628.6000,0.0000,0.0000,0.0000,
637,674.47,14826.39,-14826.39,2406.0000,65535.0000,5014.2000,2608.2000,0.0000,0.0000,0.0000,
638,674.92,14816.61,-14816.61,2286.6000,65535.0000,4939.4000,2652.8000,0.0000,0.0000,0.0000,
639,675.36,14806.86,-14806.86,2265.8000,65535.0000,4907.0000,2641.2000,0.0000,0.0000,0.0000,
640,675.81,14797.12,-14797.12,2896.6000,65535.0000,5547.6000,2651.0000,0.0000,0.0000,0.0000,
641,676.25,14787.40,-14787.40,2312.4000,65535.0000,4909.0000,2596.6000,0.0000,0.0000,0.0000,
642,676.70,14777.69,-14777.69,2361.0000,65535.0000,4984.2000,2623.2000,0.0000,0.0000,0.0000,
643,677.14,14768.01,-14768.01,2217.2000,65535.0000,4890.2000,2673.0000,0.0000,0.0000,0.0000,
644,677.58,14758.34,-14758.34,2167.4000,65535.0000,4763.2000,2595.8000,0.0000,0.0000,0.0000,
645,678.03,14748.68,-14748.68,2376.4000,65535.0000,4978.4000,2602.0000,0.0000,0.0000,0.0000,
646,678.47,14739.05,-14739.05,2473.6000,65535.0000,5112.0000,2638.4000,0.0000,0.0000,0.0000,
647,678.91,14729.43,-14729.43,2666.6000,65535.0000,5278.2000,2611.6000,0.0000,0.0000,0.0000,
648,679.36,14719.83,-14719.83,2070.6000,65535.0000,4639.8000,2569.2000,0.0000,0.0000,0.0000,
649,679.80,14710.24,-14710.24,2100.4000,65535.0000,4674.6000,2574.2000,0.0000,0.0000,0.0000,
650,680.24,14700.68,-14700.68,2843.8000,65535.0000,5482.2000,2638.4000,0.0000,0.0000,0.0000,
651,680.68,14691.13,-14691.13,2143.2000,65535.0000,4765.2000,2622.0000,0.0000,0.0000,0.0000,
652,681.12,14681.59,-14681.59,2347.0000,65535.0000,5000.2000,2653.2000,0.0000,0.0000,0.0000,
653,681.57,14672.08,-14672.08,2984.0000,65535.0000,5646.2000,2662.2000,0.0000,0.0000,0.0000,
654,682.01,14662.58,-14662.58,2149.6000,65535.0000,4754.4000,2604.8000,0.0000,0.0000,0.0000,
655,682.45,14653.09,-14653.09,2777.6000,65535.0000,5409.8000,2632.2000,0.0000,0.0000,0.0000,
656,682.89,14643.63,-14643.63,2591.8000,65535.0000,5208.4000,2616.6000,0.0000,0.0000,0.0000,
657,683.33,14634.18,-14634.18,2089.0000,65535.0000,4702.8000,2613.8000,0.0000,0.0000,0.0000,
658,683.77,14624.75,-14624.75,2380.0000,65535.0000,4921.0000,2541.0000,0.0000,0.0000,0.0000,
659,684.21,14615.33,-14615.33,2285.2000,65535.0000,4853.4000,2568.2000,0.0000,0.0000,0.0000,
660,684.65,14605.93,-14605.93,2614.2000,65535.0000,5158.0000,2543.8000,0.0000,0.0000,0.0000,
661,685.09,14596.55,-14596.55,2284.0000,65535.0000,4825.8000,2541.8000,0.0000,0.0000,0.0000,
662,685.53,14587.18,-14587.18,2594.8000,65535.0000,5137.2000,2542.4000,0.0000,0.0000,0.0000,
663,685.97,14577.83,-14577.83,2350.8000,65535.0000,4925.8000,2575.0000,0.0000,0.0000,0.0000,
664,686.41,14568.50,-14568.50,2797.4000,65535.0000,5383.8000,2586.4000,0.0000,0.0000,0.0000,
665,686.85,14559.18,-14559.18,2499.0000,65535.0000,5046.4000,2547.4000,0.0000,0.0000,0.0000,
666,687.29,14549.88,-14549.88,5500.2000,65535.0000,8122.8000,2622.6000,0.0000,0.0000,0.0000,
667,687.73,14540.60,-14540.60,2659.0000,65535.0000,5213.0000,2554.0000,0.0000,0.0000,0.0000,
668,688.17,14531.33,-14531.33,2539.6000,65535.0000,5091.8000,2552.2000,0.0000,0.0000,0.0000,
669,688.61,14522.08,-14522.08,2828.4000,65535.0000,5371.0000,2542.6000,0.0000,0.0000,0.0000,
670,689.04,14512.84,-14512.84,2770.2000,65535.0000,5267.4000,2497.2000,0.0000,0.0000,0.0000,
671,689.48,14503.63,-14503.63,2436.6000,65535.0000,4951.8000,2515.2000,0.0000,0.0000,0.0000,
672,689.92,14494.42,-14494.42,3201.6000,65535.0000,5762.2000,2560.6000,0.0000,0.0000,0.0000,
673,690.36,14485.24,-14485.24,2285.2000,65535.0000,4871.2000,2586.0000,0.0000,0.0000,0.0000,
674,690.80,14476.06,-14476.06,2307.8000,65535.0000,4868.6000,2560.8000,0.0000,0.0000,0.0000,
675,691.23,14466.91,-14466.91,2188.6000,65535.0000,4641.6000,2453.0000,0.0000,0.0000,0.0000,
676,691.67,14457.77,-14457.77,2417.0000,65535.0000,4952.8000,2535.8000,0.0000,0.0000,0.0000,
677,692.11,14448.65,-14448.65,2484.0000,65535.0000,5015.0000,2531.0000,0.0000,0.0000,0.0000,
678,692.54,14439.54,-14439.54,2307.8000,65535.0000,4846.0000,2538.2000,0.0000,0.0000,0.0000,
679,692.98,14430.45,-14430.45,2601.8000,65535.0000,5120.6000,2518.8000,0.0000,0.0000,0.0000,
680,693.42,14421.37,-14421.37,2326.2000,65535.0000,4828.4000,2502.2000,0.0000,0.0000,0.0000,
681,693.85,14412.31,-14412.31,2250.0000,65535.0000,4756.0000,2506.0000,0.0000,0.0000,0.0000,
682,694.29,14403.27,-14403.27,3077.2000,65535.0000,5592.8000,2515.6000,0.0000,0.0000,0.0000,
683,694.72,14394.24,-14394.24,2447.4000,65535.0000,4930.8000,2483.4000,0.0000,0.0000,0.0000,
684,695.16,14385.23,-14385.23,2565.4000,65535.0000,5033.2000,2467.8000,0.0000,0.0000,0.0000,
685,695.59,14376.23,-14376.23,2430.8000,65535.0000,4946.0000,2515.2000,0.0000,0.0000,0.0000,
686,696.03,14367.25,-14367.25,2162.8000,65535.0000,4624.8000,2462.0000,0.0000,0.0000,0.0000,
687,696.46,14358.29,-14358.29,2606.2000,65535.0000,5081.4000,2475.2000,0.0000,0.0000,0.0000,
688,696.90,14349.34,-14349.34,2049.0000,65535.0000,4508.0000,2459.0000,0.0000,0.0000,0.0000,
689,697.33,14340.40,-14340.40,2208.6000,65535.0000,4691.6000,2483.0000,0.0000,0.0000,0.0000,
690,697.76,14331.48,-14331.48,2381.0000,65535.0000,4795.6000,2414.6000,0.0000,0.0000,0.0000,
691,698.20,14322.58,-14322.58,3263.4000,65535.0000,5756.8000,2493.4000,0.0000,0.0000,0.0000,
692,698.63,14313.69,-14313.69,2236.8000,65535.0000,4697.4000,2460.6000,0.0000,0.0000,0.0000,
693,699.07,14304.82,-14304.82,3211.0000,65535.0000,5718.4000,2507.4000,0.0000,0.0000,0.0000,
694,699.50,14295.96,-14295.96,2853.4000,65535.0000,5342.6000,2489.2000,0.0000,0.0000,0.0000,
695,699.93,14287.12,-14287.12,2510.2000,65535.0000,4969.8000,2459.6000,0.0000,0.0000,0.0000,
696,700.36,14278.29,-14278.29,2316.8000,65535.0000,4793.8000,2477.0000,0.0000,0.0000,0.0000,
697,700.80,14269.48,-14269.48,3106.0000,65535.0000,5603.2000,2497.2000,0.0000,0.0000,0.0000,
698,701.23,14260.68,-14260.68,2431.4000,65535.0000,4838.4000,2407.0000,0.0000,0.0000,0.0000,
699,701.66,14251.90,-14251.90,2703.0000,65535.0000,5136.6000,2433.6000,0.0000,0.0000,0.0000,
700,702.09,14243.13,-14243.13,2922.0000,65535.0000,5342.0000,2420.0000,0.0000,0.0000,0.0000,
701,702.52,14234.38,-14234.38,2224.2000,65535.0000,4714.2000,2490.0000,0.0000,0.0000,0.0000,
702,702.96,14225.64,-14225.64,2396.8000,65535.0000,4817.2000,2420.4000,0.0000,0.0000,0.0000,
703,703.39,14216.92,-14216.92,2324.2000,65535.0000,4743.8000,2419.6000,0.0000,0.0000,0.0000,
704,703.82,14208.21,-14208.21,2363.8000,65535.0000,4777.4000,2413.6000,0.0000,0.0000,0.0000,
705,704.25,14199.52,-14199.52,2403.0000,65535.0000,4882.6000,2479.6000,0.0000,0.0000,0.0000,
706,704.68,14190.84,-14190.84,2437.2000,65535.0000,4868.6000,2431.4000,0.0000,0.0000,0.0000,
707,705.11,14182.18,-14182.18,2302.2000,65535.0000,4710.2000,2408.0000,0.0000,0.0000,0.0000,
708,705.54,14173.53,-14173.53,2490.2000,65535.0000,4937.8000,2447.6000,0.0000,0.0000,0.0000,
709,705.97,14164.90,-14164.90,3152.0000,65535.0000,5526.4000,2374.4000,0.0000,0.0000,0.0000,
710,706.40,14156.28,-14156.28,2278.2000,65535.0000,4690.6000,2412.4000,0.0000,0.0000,0.0000,
711,706.83,14147.68,-14147.68,2224.4000,65535.0000,4643.4000,2419.0000,0.0000,0.0000,0.0000,
712,707.26,14139.09,-14139.09,2168.2000,65535.0000,4537.4000,2369.2000,0.0000,0.0000,0.0000,
713,707.69,14130.52,-14130.52,2371.6000,65535.0000,4729.6000,2358.0000,0.0000,0.0000,0.0000,
714,708.12,14121.96,-14121.96,2575.2000,65535.0000,5062.8000,2487.6000,0.0000,0.0000,0.0000,
715,708.55,14113.42,-14113.42,2189.8000,65535.0000,4602.0000,2412.2000,0.0000,0.0000,0.0000,
716,708.97,14104.88,-14104.88,2098.6000,65535.0000,4463.2000,2364.6000,0.0000,0.0000,0.0000,
717,709.40,14096.37,-14096.37,2210.6000,65535.0000,4593.4000,2382.8000,0.0000,0.0000,0.0000,
718,709.83,14087.87,-14087.87,2379.6000,65535.0000,4779.0000,2399.4000,0.0000,0.0000,0.0000,
719,710.26,14079.38,-14079.38,2413.8000,65535.0000,4767.0000,2353.2000,0.0000,0.0000,0.0000,
720,710.69,14070.91,-14070.91,3391.2000,65535.0000,5756.0000,2364.8000,0.0000,0.0000,0.0000,
721,711.11,14062.45,-14062.45,2444.6000,65535.0000,4818.4000,2373.8000,0.0000,0.0000,0.0000,
722,711.54,14054.01,-14054.01,2571.0000,65535.0000,4950.0000,2379.0000,0.0000,0.0000,0.0000,
723,711.97,14045.58,-14045.58,2537.4000,65535.0000,4888.8000,2351.4000,0.0000,0.0000,0.0000,
724,712.39,14037.16,-14037.16,2298.6000,65535.0000,4706.8000,2408.2000,0.0000,0.0000,0.0000,
725,712.82,14028.76,-14028.76,2649.2000,65535.0000,5085.8000,2436.6000,0.0000,0.0000,0.0000,
726,713.25,14020.38,-14020.38,3169.0000,65535.0000,5536.6000,2367.6000,0.0000,0.0000,0.0000,
727,713.67,14012.00,-14012.00,2365.2000,65535.0000,4724.8000,2359.6000,0.0000,0.0000,0.0000,
728,714.10,14003.64,-14003.64,2509.4000,65535.0000,4907.4000,2398.0000,0.0000,0.0000,0.0000,
729,714.53,13995.30,-13995.30,2159.0000,65535.0000,4530.8000,2371.8000,0.0000,0.0000,0.0000,
730,714.95,13986.97,-13986.97,2228.6000,65535.0000,4640.4000,2411.8000,0.0000,0.0000,0.0000,
731,715.38,13978.65,-13978.65,2440.8000,65535.0000,4830.4000,2389.6000,0.0000,0.0000,0.0000,
732,715.80,13970.35,-13970.35,2810.2000,65535.0000,5239.8000,2429.6000,0.0000,0.0000,0.0000,
733,716.23,13962.06,-13962.06,2325.0000,65535.0000,4734.8000,2409.8000,0.0000,0.0000,0.0000,
734,716.65,13953.79,-13953.79,2220.8000,65535.0000,4610.0000,2389.2000,0.0000,0.0000,0.0000,
735,717.08,13945.53,-13945.53,2294.2000,65535.0000,4690.0000,2395.8000,0.0000,0.0000,0.0000,
736,717.50,13937.28,-13937.28,2461.4000,65535.0000,4838.4000,2377.0000,0.0000,0.0000,0.0000,
737,717.92,13929.05,-13929.05,3006.6000,65535.0000,5397.4000,2390.8000,0.0000,0.0000,0.0000,
738,718.35,13920.83,-13920.83,2024.2000,65535.0000,4446.8000,2422.6000,0.0000,0.0000,0.0000,
739,718.77,13912.63,-13912.63,2145.6000,65535.0000,4514.6000,2369.0000,0.0000,0.0000,0.0000,
740,719.20,13904.43,-13904.43,2501.6000,65535.0000,4969.0000,2467.4000,0.0000,0.0000,0.0000,
741,719.62,13896.26,-13896.26,2024.2000,65535.0000,4430.4000,2406.2000,0.0000,0.0000,0.0000,
742,720.04,13888.09,-13888.09,2227.4000,65535.0000,4554.8000,2327.4000,0.0000,0.0000,0.0000,
743,720.46,13879.94,-13879.94,2031.0000,65535.0000,4368.4000,2337.4000,0.0000,0.0000,0.0000,
744,720.89,13871.81,-13871.81,2134.2000,65535.0000,4498.2000,2364.0000,0.0000,0.0000,0.0000,
745,721.31,13863.68,-13863.68,2337.8000,65535.0000,4773.4000,2435.6000,0.0000,0.0000,0.0000,
746,721.73,13855.57,-13855.57,2143.0000,65535.0000,4482.6000,2339.6000,0.0000,0.0000,0.0000,
747,722.15,13847.48,-13847.48,2368.4000,65535.0000,4694.6000,2326.2000,0.0000,0.0000,0.0000,
748,722.57,13839.39,-13839.39,2614.0000,65535.0000,5046.2000,2432.2000,0.0000,0.0000,0.0000,
749,723.00,13831.33,-13831.33,2257.0000,65535.0000,4618.0000,2361.0000,0.0000,0.0000,0.0000,
750,723.42,13823.27,-13823.27,2217.2000,65535.0000,4598.0000,2380.8000,0.0000,0.0000,0.0000,
751,723.84,13815.23,-13815.23,2545.2000,65535.0000,4899.4000,2354.2000,0.0000,0.0000,0.0000,
752,724.26,13807.20,-13807.20,2932.0000,65535.0000,5381.0000,2449.0000,0.0000,0.0000,0.0000,
753,724.68,13799.18,-13799.18,2381.4000,65535.0000,4728.2000,2346.8000,0.0000,0.0000,0.0000,
754,725.10,13791.18,-13791.18,2316.6000,65535.0000,4646.2000,2329.6000,0.0000,0.0000,0.0000,
755,725.52,13783.19,-13783.19,2122.8000,65535.0000,4463.6000,2340.8000,0.0000,0.0000,0.0000,
756,725.94,13775.22,-13775.22,2323.6000,65535.0000,4669.6000,2346.0000,0.0000,0.0000,0.0000,
757,726.36,13767.26,-13767.26,2574.2000,65535.0000,4940.0000,2365.8000,0.0000,0.0000,0.0000,
758,726.78,13759.31,-13759.31,2171.6000,65535.0000,4573.4000,2401.8000,0.0000,0.0000,0.0000,
759,727.20,13751.37,-13751.37,2703.4000,65535.0000,5021.0000,2317.6000,0.0000,0.0000,0.0000,
760,727.62,13743.45,-13743.45,2154.2000,65535.0000,4549.2000,2395.0000,0.0000,0.0000,0.0000,
761,728.04,13735.54,-13735.54,2167.0000,65535.0000,4475.8000,2308.8000,0.0000,0.0000,0.0000,
762,728.46,13727.64,-13727.64,2100.0000,65535.0000,4441.8000,2341.8000,0.0000,0.0000,0.0000,
763,728.88,13719.76,-13719.76,2525.8000,65535.0000,4918.8000,2393.0000,0.0000,0.0000,0.0000,
764,729.29,13711.89,-13711.89,2969.6000,65535.0000,5417.2000,2447.6000,0.0000,0.0000,0.0000,
765,729.71,13704.03,-13704.03,2354.2000,65535.0000,4684.0000,2329.8000,0.0000,0.0000,0.0000,
766,730.13,13696.19,-13696.19,2316.6000,65535.0000,4691.0000,2374.4000,0.0000,0.0000,0.0000,
767,730.55,13688.35,-13688.35,2580.8000,65535.0000,4957.6000,2376.8000,0.0000,0.0000,0.0000,
768,730.97,13680.53,-13680.53,2219.2000,65535.0000,4550.6000,2331.4000,0.0000,0.0000,0.0000,
769,731.38,13672.73,-13672.73,2510.0000,65535.0000,4871.0000,2361.0000,0.0000,0.0000,0.0000,
770,731.80,13664.94,-13664.94,2015.8000,65535.0000,4370.0000,2354.2000,0.0000,0.0000,0.0000,
771,732.22,13657.16,-13657.16,2361.4000,65535.0000,4757.6000,2396.2000,0.0000,0.0000,0.0000,
772,732.63,13649.39,-13649.39,2534.6000,65535.0000,4887.0000,2352.4000,0.0000,0.0000,0.0000,
773,733.05,13641.63,-13641.63,2324.4000,65535.0000,4674.0000,2349.6000,0.0000,0.0000,0.0000,
774,733.47,13633.89,-13633.89,2576.6000,65535.0000,4908.6000,2332.0000,0.0000,0.0000,0.0000,
775,733.88,13626.16,-13626.16,2258.6000,65535.0000,4610.0000,2351.4000,0.0000,0.0000,0.0000,
776,734.30,13618.45,-13618.45,2093.0000,65535.0000,4471.6000,2378.6000,0.0000,0.0000,0.0000,
777,734.71,13610.74,-13610.74,2577.6000,65535.0000,4957.6000,2380.0000,0.0000,0.0000,0.0000,
778,735.13,13603.05,-13603.05,2338.8000,65535.0000,4661.6000,2322.8000,0.0000,0.0000,0.0000,
779,735.54,13595.37,-13595.37,2347.6000,65535.0000,4752.0000,2404.4000,0.0000,0.0000,0.0000,
780,735.96,13587.71,-13587.71,2438.0000,65535.0000,4852.6000,2414.6000,0.0000,0.0000,0.0000,
781,736.37,13580.05,-13580.05,2097.4000,65535.0000,4509.2000,2411.8000,0.0000,0.0000,0.0000,
782,736.79,13572.41,-13572.41,2464.0000,65535.0000,4848.4000,2384.4000,0.0000,0.0000,0.0000,
783,737.20,13564.78,-13564.78,2205.8000,65535.0000,4566.4000,2360.6000,0.0000,0.0000,0.0000,
784,737.62,13557.17,-13557.17,2560.8000,65535.0000,4941.4000,2380.6000,0.0000,0.0000,0.0000,
785,738.03,13549.56,-13549.56,2147.8000,65535.0000,4523.8000,2376.0000,0.0000,0.0000,0.0000,
786,738.44,13541.97,-13541.97,2693.0000,65535.0000,5056.4000,2363.4000,0.0000,0.0000,0.0000,
787,738.86,13534.39,-13534.39,3427.2000,65535.0000,5795.4000,2368.2000,0.0000,0.0000,0.0000,
788,739.27,13526.83,-13526.83,2207.4000,65535.0000,4576.6000,2369.2000,0.0000,0.0000,0.0000,
789,739.68,13519.27,-13519.27,2491.4000,65535.0000,4832.2000,2340.8000,0.0000,0.0000,0.0000,
790,740.10,13511.73,-13511.73,2288.4000,65535.0000,4686.4000,2398.0000,0.0000,0.0000,0.0000,
791,740.51,13504.20,-13504.20,2293.0000,65535.0000,4672.2000,2379.2000,0.0000,0.0000,0.0000,
792,740.92,13496.69,-13496.69,2285.2000,65535.0000,4686.4000,2401.2000,0.0000,0.0000,0.0000,
793,741.33,13489.18,-13489.18,3024.0000,65535.0000,5438.0000,2414.0000,0.0000,0.0000,0.0000,
794,741.75,13481.69,-13481.69,3001.4000,65535.0000,5459.4000,2458.0000,0.0000,0.0000,0.0000,
795,742.16,13474.21,-13474.21,2177.2000,65535.0000,4566.4000,2389.2000,0.0000,0.0000,0.0000,
796,742.57,13466.74,-13466.74,2239.0000,65535.0000,4602.6000,2363.6000,0.0000,0.0000,0.0000,
797,742.98,13459.28,-13459.28,2277.4000,65535.0000,4706.4000,2429.0000,0.0000,0.0000,0.0000,
798,743.39,13451.84,-13451.84,2235.2000,65535.0000,4660.6000,2425.4000,0.0000,0.0000,0.0000,
799,743.80,13444.40,-13444.40,2754.2000,65535.0000,5168.4000,2414.2000,0.0000,0.0000,0.0000,
800,744.21,13436.98,-13436.98,2227.4000,65535.0000,4662.4000,2435.0000,0.0000,0.0000,0.0000,
801,744.63,13429.58,-13429.58,2462.0000,65535.0000,4827.6000,2365.6000,0.0000,0.0000,0.0000,
802,745.04,13422.18,-13422.18,2638.4000,65535.0000,5004.4000,2366.0000,0.0000,0.0000,0.0000,
803,745.45,13414.79,-13414.79,2711.8000,65535.0000,5088.6000,2376.8000,0.0000,0.0000,0.0000,
804,745.86,13407.42,-13407.42,2458.4000,65535.0000,4885.0000,2426.6000,0.0000,0.0000,0.0000,
805,746.27,13400.06,-13400.06,2417.2000,65535.0000,4812.0000,2394.8000,0.0000,0.0000,0.0000,
806,746.67,13392.71,-13392.71,2628.8000,65535.0000,4999.6000,2370.8000,0.0000,0.0000,0.0000,
807,747.08,13385.38,-13385.38,2234.6000,65535.0000,4568.4000,2333.8000,0.0000,0.0000,0.0000,
808,747.49,13378.05,-13378.05,2536.6000,65535.0000,4903.4000,2366.8000,0.0000,0.0000,0.0000,
809,747.90,13370.74,-13370.74,2353.0000,65535.0000,4689.4000,2336.4000,0.0000,0.0000,0.0000,
810,748.31,13363.44,-13363.44,3712.8000,65535.0000,6045.6000,2332.8000,0.0000,0.0000,0.0000,
811,748.72,13356.15,-13356.15,2368.2000,65535.0000,4669.6000,2301.4000,0.0000,0.0000,0.0000,
812,749.13,13348.87,-13348.87,2594.2000,65535.0000,4966.6000,2372.4000,0.0000,0.0000,0.0000,
813,749.54,13341.60,-13341.60,2316.4000,65535.0000,4652.0000,2335.6000,0.0000,0.0000,0.0000,
814,749.94,13334.35,-13334.35,2556.8000,65535.0000,4918.0000,2361.2000,0.0000,0.0000,0.0000,
815,750.35,13327.10,-13327.10,2384.2000,65535.0000,4736.2000,2352.0000,0.0000,0.0000,0.0000,
816,750.76,13319.87,-13319.87,3180.4000,65535.0000,5527.6000,2347.2000,0.0000,0.0000,0.0000,
817,751.17,13312.65,-13312.65,2462.8000,65535.0000,4769.0000,2306.2000,0.0000,0.0000,0.0000,
818,751.57,13305.45,-13305.45,2541.8000,65535.0000,4930.0000,2388.2000,0.0000,0.0000,0.0000,
819,751.98,13298.25,-13298.25,2364.6000,65535.0000,4744.6000,2380.0000,0.0000,0.0000,0.0000,
820,752.39,13291.06,-13291.06,2355.8000,65535.0000,4692.8000,2337.0000,0.0000,0.0000,0.0000,
821,752.79,13283.89,-13283.89,2702.4000,65535.0000,5018.8000,2316.4000,0.0000,0.0000,0.0000,
822,753.20,13276.73,-13276.73,2460.6000,65535.0000,4776.8000,2316.2000,0.0000,0.0000,0.0000,
823,753.60,13269.58,-13269.58,2777.4000,65535.0000,5123.4000,2346.0000,0.0000,0.0000,0.0000,
824,754.01,13262.44,-13262.44,2715.6000,65535.0000,5047.4000,2331.8000,0.0000,0.0000,0.0000,
825,754.41,13255.31,-13255.31,2383.2000,65535.0000,4715.8000,2332.6000,0.0000,0.0000,0.0000,
826,754.82,13248.19,-13248.19,2597.8000,65535.0000,4893.6000,2295.8000,0.0000,0.0000,0.0000,
827,755.22,13241.09,-13241.09,2808.8000,65535.0000,5047.8000,2239.0000,0.0000,0.0000,0.0000,
828,755.63,13233.99,-13233.99,2592.2000,65535.0000,4949.4000,2357.2000,0.0000,0.0000,0.0000,
829,756.03,13226.91,-13226.91,2293.6000,65535.0000,4575.2000,2281.6000,0.0000,0.0000,0.0000,
830,756.44,13219.84,-13219.84,2899.2000,65535.0000,5165.8000,2266.6000,0.0000,0.0000,0.0000,
831,756.84,13212.78,-13212.78,2624.4000,65535.0000,4884.2000,2259.8000,0.0000,0.0000,0.0000,
832,757.25,13205.73,-13205.73,2532.4000,65535.0000,4841.4000,2309.0000,0.0000,0.0000,0.0000,
833,757.65,13198.69,-13198.69,2751.2000,65535.0000,5007.6000,2256.4000,0.0000,0.0000,0.0000,
834,758.05,13191.67,-13191.67,2231.2000,65535.0000,4507.0000,2275.8000,0.0000,0.0000,0.0000,
835,758.46,13184.65,-13184.65,2414.0000,65535.0000,4680.0000,2266.0000,0.0000,0.0000,0.0000,
836,758.86,13177.65,-13177.65,2815.0000,65535.0000,5132.4000,2317.4000,0.0000,0.0000,0.0000,
837,759.26,13170.66,-13170.66,2160.4000,65535.0000,4421.4000,2261.0000,0.0000,0.0000,0.0000,
838,759.67,13163.67,-13163.67,2412.2000,65535.0000,4628.8000,2216.6000,0.0000,0.0000,0.0000,
839,760.07,13156.70,-13156.70,3263.6000,65535.0000,5543.2000,2279.6000,0.0000,0.0000,0.0000,
840,760.47,13149.74,-13149.74,2273.4000,65535.0000,4505.2000,2231.8000,0.0000,0.0000,0.0000,
841,760.87,13142.80,-13142.80,2229.8000,65535.0000,4420.8000,2191.0000,0.0000,0.0000,0.0000,
842,761.28,13135.86,-13135.86,2357.6000,65535.0000,4611.8000,2254.2000,0.0000,0.0000,0.0000,
843,761.68,13128.93,-13128.93,2445.6000,65535.0000,4749.8000,2304.2000,0.0000,0.0000,0.0000,
844,762.08,13122.02,-13122.02,2623.2000,65535.0000,4913.6000,2290.4000,0.0000,0.0000,0.0000,
845,762.48,13115.11,-13115.11,2521.2000,65535.0000,4763.2000,2242.0000,0.0000,0.0000,0.0000,
846,762.88,13108.22,-13108.22,2847.8000,65535.0000,5034.4000,2186.6000,0.0000,0.0000,0.0000,
847,763.28,13101.33,-13101.33,2726.8000,65535.0000,4920.4000,2193.6000,0.0000,0.0000,0.0000,
848,763.68,13094.46,-13094.46,2644.4000,65535.0000,4784.4000,2140.0000,0.0000,0.0000,0.0000,
849,764.08,13087.60,-13087.60,2646.0000,65535.0000,4843.8000,2197.8000,0.0000,0.0000,0.0000,
850,764.48,13080.75,-13080.75,3001.4000,65535.0000,5165.0000,2163.6000,0.0000,0.0000,0.0000,
851,764.88,13073.91,-13073.91,2199.8000,65535.0000,4366.2000,2166.4000,0.0000,0.0000,0.0000,
852,765.28,13067.08,-13067.08,2380.4000,65535.0000,4581.0000,2200.6000,0.0000,0.0000,0.0000,
853,765.68,13060.26,-13060.26,2324.6000,65535.0000,4525.6000,2201.0000,0.0000,0.0000,0.0000,
854,766.08,13053.45,-13053.45,2519.4000,65535.0000,4709.4000,2190.0000,0.0000,0.0000,0.0000,
855,766.48,13046.66,-13046.66,2220.0000,65535.0000,4316.6000,2096.6000,0.0000,0.0000,0.0000,
856,766.88,13039.87,-13039.87,2780.2000,65535.0000,4943.2000,2163.0000,0.0000,0.0000,0.0000,
857,767.28,13033.10,-13033.10,2727.8000,65535.0000,4859.4000,2131.6000,0.0000,0.0000,0.0000,
858,767.68,13026.33,-13026.33,2489.6000,65535.0000,4601.2000,2111.6000,0.0000,0.0000,0.0000,
859,768.07,13019.58,-13019.58,3570.2000,65535.0000,5716.6000,2146.4000,0.0000,0.0000,0.0000,
860,768.47,13012.83,-13012.83,2503.0000,65535.0000,4638.2000,2135.2000,0.0000,0.0000,0.0000,
861,768.87,13006.10,-13006.10,2119.4000,65535.0000,4242.2000,2122.8000,0.0000,0.0000,0.0000,
862,769.27,12999.38,-12999.38,2384.0000,65535.0000,4487.2000,2103.2000,0.0000,0.0000,0.0000,
863,769.66,12992.67,-12992.67,2586.2000,65535.0000,4716.6000,2130.4000,0.0000,0.0000,0.0000,
864,770.06,12985.96,-12985.96,2531.0000,65535.0000,4641.2000,2110.2000,0.0000,0.0000,0.0000,
865,770.46,12979.27,-12979.27,3014.2000,65535.0000,5111.8000,2097.6000,0.0000,0.0000,0.0000,
866,770.86,12972.59,-12972.59,2900.8000,65535.0000,4951.4000,2050.6000,0.0000,0.0000,0.0000,
867,771.25,12965.92,-12965.92,2733.0000,65535.0000,4807.4000,2074.4000,0.0000,0.0000,0.0000,
868,771.65,12959.26,-12959.26,2282.4000,65535.0000,4343.0000,2060.6000,0.0000,0.0000,0.0000,
869,772.04,12952.61,-12952.61,2752.8000,65535.0000,4792.2000,2039.4000,0.0000,0.0000,0.0000,
870,772.44,12945.98,-12945.98,2612.6000,65535.0000,4662.0000,2049.4000,0.0000,0.0000,0.0000,
871,772.84,12939.35,-12939.35,2442.6000,65535.0000,4538.0000,2095.4000,0.0000,0.0000,0.0000,
872,773.23,12932.73,-12932.73,2342.6000,65535.0000,4422.2000,2079.6000,0.0000,0.0000,0.0000,
873,773.63,12926.12,-12926.12,2431.6000,65535.0000,4490.6000,2059.0000,0.0000,0.0000,0.0000,
874,774.02,12919.52,-12919.52,2332.0000,65535.0000,4355.2000,2023.2000,0.0000,0.0000,0.0000,
875,774.42,12912.94,-12912.94,2230.4000,65535.0000,4256.4000,2026.0000,0.0000,0.0000,0.0000,
876,774.81,12906.36,-12906.36,2641.6000,65535.0000,4650.0000,2008.4000,0.0000,0.0000,0.0000,
877,775.21,12899.79,-12899.79,2472.4000,65535.0000,4485.4000,2013.0000,0.0000,0.0000,0.0000,
878,775.60,12893.24,-12893.24,2856.4000,65535.0000,4826.0000,1969.6000,0.0000,0.0000,0.0000,
879,775.99,12886.69,-12886.69,2209.2000,65535.0000,4256.6000,2047.4000,0.0000,0.0000,0.0000,
880,776.39,12880.15,-12880.15,2551.4000,65535.0000,4544.6000,1993.2000,0.0000,0.0000,0.0000,
881,776.78,12873.63,-12873.63,2842.2000,65535.0000,4809.4000,1967.2000,0.0000,0.0000,0.0000,
882,777.18,12867.11,-12867.11,2905.0000,65535.0000,4878.8000,1973.8000,0.0000,0.0000,0.0000,
883,777.57,12860.61,-12860.61,2465.6000,65535.0000,4508.2000,2042.6000,0.0000,0.0000,0.0000,
884,777.96,12854.11,-12854.11,2707.4000,65535.0000,4677.6000,1970.2000,0.0000,0.0000,0.0000,
885,778.35,12847.62,-12847.62,2907.8000,65535.0000,4879.6000,1971.8000,0.0000,0.0000,0.0000,
886,778.75,12841.15,-12841.15,2988.4000,65535.0000,4959.6000,1971.2000,0.0000,0.0000,0.0000,
887,779.14,12834.68,-12834.68,2374.2000,65535.0000,4306.8000,1932.6000,0.0000,0.0000,0.0000,
888,779.53,12828.23,-12828.23,2324.0000,65535.0000,4257.4000,1933.4000,0.0000,0.0000,0.0000,
889,779.92,12821.78,-12821.78,2273.2000,65535.0000,4169.2000,1896.0000,0.0000,0.0000,0.0000,
890,780.31,12815.35,-12815.35,2455.2000,65535.0000,4387.0000,1931.8000,0.0000,0.0000,0.0000,
891,780.71,12808.92,-12808.92,2343.6000,65535.0000,4307.4000,1963.8000,0.0000,0.0000,0.0000,
892,781.10,12802.50,-12802.50,2246.4000,65535.0000,4202.8000,1956.4000,0.0000,0.0000,0.0000,
893,781.49,12796.10,-12796.10,2322.2000,65535.0000,4215.8000,1893.6000,0.0000,0.0000,0.0000,
894,781.88,12789.70,-12789.70,2576.0000,65535.0000,4499.8000,1923.8000,0.0000,0.0000,0.0000,
895,782.27,12783.32,-12783.32,2591.2000,65535.0000,4503.8000,1912.6000,0.0000,0.0000,0.0000,
896,782.66,12776.94,-12776.94,2986.0000,65535.0000,4897.4000,1911.4000,0.0000,0.0000,0.0000,
897,783.05,12770.57,-12770.57,2756.0000,65535.0000,4690.2000,1934.2000,0.0000,0.0000,0.0000,
898,783.44,12764.22,-12764.22,3495.6000,65535.0000,5440.2000,1944.6000,0.0000,0.0000,0.0000,
899,783.83,12757.87,-12757.87,2403.8000,65535.0000,4270.6000,1866.8000,0.0000,0.0000,0.0000,
900,784.22,12751.53,-12751.53,2503.2000,65535.0000,4388.4000,1885.2000,0.0000,0.0000,0.0000,
901,784.61,12745.20,-12745.20,2369.0000,65535.0000,4235.8000,1866.8000,0.0000,0.0000,0.0000,
902,785.00,12738.89,-12738.89,2287.0000,65535.0000,4142.0000,1855.0000,0.0000,0.0000,0.0000,
903,785.39,12732.58,-12732.58,2288.8000,65535.0000,4133.8000,1845.0000,0.0000,0.0000,0.0000,
904,785.78,12726.28,-12726.28,2464.4000,65535.0000,4377.2000,1912.8000,0.0000,0.0000,0.0000,
905,786.16,12719.99,-12719.99,2239.6000,65535.0000,4115.0000,1875.4000,0.0000,0.0000,0.0000,
906,786.55,12713.71,-12713.71,2517.8000,65535.0000,4393.2000,1875.4000,0.0000,0.0000,0.0000,
907,786.94,12707.44,-12707.44,2566.0000,65535.0000,4367.8000,1801.8000,0.0000,0.0000,0.0000,
908,787.33,12701.18,-12701.18,2650.2000,65535.0000,4482.8000,1832.6000,0.0000,0.0000,0.0000,
909,787.72,12694.93,-12694.93,2475.8000,65535.0000,4310.2000,1834.4000,0.0000,0.0000,0.0000,
910,788.10,12688.69,-12688.69,2370.2000,65535.0000,4231.0000,1860.8000,0.0000,0.0000,0.0000,
911,788.49,12682.46,-12682.46,2533.2000,65535.0000,4382.0000,1848.8000,0.0000,0.0000,0.0000,
912,788.88,12676.24,-12676.24,2224.8000,65535.0000,4057.2000,1832.4000,0.0000,0.0000,0.0000,
913,789.26,12670.03,-12670.03,2497.0000,65535.0000,4357.6000,1860.6000,0.0000,0.0000,0.0000,
914,789.65,12663.83,-12663.83,2657.0000,65535.0000,4473.8000,1816.8000,0.0000,0.0000,0.0000,
915,790.04,12657.63,-12657.63,2442.2000,65535.0000,4238.6000,1796.4000,0.0000,0.0000,0.0000,
916,790.42,12651.45,-12651.45,2563.6000,65535.0000,4357.4000,1793.8000,0.0000,0.0000,0.0000,
917,790.81,12645.28,-12645.28,2275.2000,65535.0000,4061.6000,1786.4000,0.0000,0.0000,0.0000,
918,791.19,12639.11,-12639.11,3170.6000,65535.0000,4997.2000,1826.6000,0.0000,0.0000,0.0000,
919,791.58,12632.96,-12632.96,2505.0000,65535.0000,4293.8000,1788.8000,0.0000,0.0000,0.0000,
920,791.97,12626.81,-12626.81,2351.2000,65535.0000,4137.4000,1786.2000,0.0000,0.0000,0.0000,
921,792.35,12620.67,-12620.67,2279.2000,65535.0000,4050.6000,1771.4000,0.0000,0.0000,0.0000,
922,792.74,12614.55,-12614.55,2546.0000,65535.0000,4319.0000,1773.0000,0.0000,0.0000,0.0000,
923,793.12,12608.43,-12608.43,2519.4000,65535.0000,4270.0000,1750.6000,0.0000,0.0000,0.0000,
924,793.50,12602.32,-12602.32,2615.0000,65535.0000,4336.6000,1721.6000,0.0000,0.0000,0.0000,
925,793.89,12596.22,-12596.22,2467.6000,65535.0000,4192.8000,1725.2000,0.0000,0.0000,0.0000,
926,794.27,12590.13,-12590.13,2848.4000,65535.0000,4567.6000,1719.2000,0.0000,0.0000,0.0000,
927,794.66,12584.05,-12584.05,2766.8000,65535.0000,4529.0000,1762.2000,0.0000,0.0000,0.0000,
928,795.04,12577.98,-12577.98,3002.2000,65535.0000,4752.6000,1750.4000,0.0000,0.0000,0.0000,
929,795.42,12571.92,-12571.92,2513.2000,65535.0000,4231.4000,1718.2000,0.0000,0.0000,0.0000,
930,795.81,12565.86,-12565.86,2688.0000,65535.0000,4441.0000,1753.0000,0.0000,0.0000,0.0000,
931,796.19,12559.82,-12559.82,2533.2000,65535.0000,4225.0000,1691.8000,0.0000,0.0000,0.0000,
932,796.57,12553.78,-12553.78,2734.8000,65535.0000,4460.8000,1726.0000,0.0000,0.0000,0.0000,
933,796.96,12547.76,-12547.76,2840.4000,65535.0000,4552.8000,1712.4000,0.0000,0.0000,0.0000,
934,797.34,12541.74,-12541.74,2457.8000,65535.0000,4180.8000,1723.0000,0.0000,0.0000,0.0000,
935,797.72,12535.74,-12535.74,2261.6000,65535.0000,3980.0000,1718.4000,0.0000,0.0000,0.0000,
936,798.10,12529.74,-12529.74,2670.4000,65535.0000,4444.0000,1773.6000,0.0000,0.0000,0.0000,
937,798.48,12523.75,-12523.75,3008.4000,65535.0000,4675.8000,1667.4000,0.0000,0.0000,0.0000,
938,798.86,12517.77,-12517.77,2608.8000,65535.0000,4297.6000,1688.8000,0.0000,0.0000,0.0000,
939,799.25,12511.80,-12511.80,2755.6000,65535.0000,4480.6000,1725.0000,0.0000,0.0000,0.0000,
940,799.63,12505.83,-12505.83,2547.2000,65535.0000,4201.6000,1654.4000,0.0000,0.0000,0.0000,
941,800.01,12499.88,-12499.88,2951.2000,65535.0000,4632.0000,1680.8000,0.0000,0.0000,0.0000,
942,800.39,12493.94,-12493.94,2469.4000,65535.0000,4085.4000,1616.0000,0.0000,0.0000,0.0000,
943,800.77,12488.00,-12488.00,2874.2000,65535.0000,4536.0000,1661.8000,0.0000,0.0000,0.0000,
944,801.15,12482.08,-12482.08,3575.0000,65535.0000,5270.4000,1695.4000,0.0000,0.0000,0.0000,
945,801.53,12476.16,-12476.16,2608.4000,65535.0000,4271.2000,1662.8000,0.0000,0.0000,0.0000,
946,801.91,12470.25,-12470.25,2677.2000,65535.0000,4334.2000,1657.0000,0.0000,0.0000,0.0000,
947,802.29,12464.35,-12464.35,3078.6000,65535.0000,4796.0000,1717.4000,0.0000,0.0000,0.0000,
948,802.67,12458.46,-12458.46,2896.4000,65535.0000,4534.6000,1638.2000,0.0000,0.0000,0.0000,
949,803.05,12452.58,-12452.58,2779.8000,65535.0000,4382.0000,1602.2000,0.0000,0.0000,0.0000,
950,803.43,12446.71,-12446.71,2809.8000,65535.0000,4470.0000,1660.2000,0.0000,0.0000,0.0000,
951,803.80,12440.84,-12440.84,3214.2000,65535.0000,4891.0000,1676.8000,0.0000,0.0000,0.0000,
952,804.18,12434.99,-12434.99,2380.6000,65535.0000,4025.4000,1644.8000,0.0000,0.0000,0.0000,
953,804.56,12429.14,-12429.14,2630.8000,65535.0000,4262.6000,1631.8000,0.0000,0.0000,0.0000,
954,804.94,12423.30,-12423.30,3099.0000,65535.0000,4765.8000,1666.8000,0.0000,0.0000,0.0000,
955,805.32,12417.48,-12417.48,2588.2000,65535.0000,4279.6000,1691.4000,0.0000,0.0000,0.0000,
956,805.69,12411.66,-12411.66,2719.4000,65535.0000,4362.0000,1642.6000,0.0000,0.0000,0.0000,
957,806.07,12405.84,-12405.84,2872.6000,65535.0000,4480.8000,1608.2000,0.0000,0.0000,0.0000,
958,806.45,12400.04,-12400.04,2653.0000,65535.0000,4264.4000,1611.4000,0.0000,0.0000,0.0000,
959,806.83,12394.25,-12394.25,3656.0000,65535.0000,5314.8000,1658.8000,0.0000,0.0000,0.0000,
960,807.20,12388.46,-12388.46,2602.4000,65535.0000,4187.0000,1584.6000,0.0000,0.0000,0.0000,
961,807.58,12382.69,-12382.69,2587.2000,65535.0000,4201.4000,1614.2000,0.0000,0.0000,0.0000,
962,807.96,12376.92,-12376.92,2745.8000,65535.0000,4391.2000,1645.4000,0.0000,0.0000,0.0000,
963,808.33,12371.16,-12371.16,2667.4000,65535.0000,4301.4000,1634.0000,0.0000,0.0000,0.0000,
964,808.71,12365.41,-12365.41,4115.6000,65535.0000,5723.6000,1608.0000,0.0000,0.0000,0.0000,
965,809.08,12359.67,-12359.67,3178.4000,65535.0000,4808.0000,1629.6000,0.0000,0.0000,0.0000,
966,809.46,12353.93,-12353.93,2775.0000,65535.0000,4364.8000,1589.8000,0.0000,0.0000,0.0000,
967,809.83,12348.21,-12348.21,2388.4000,65535.0000,3961.6000,1573.2000,0.0000,0.0000,0.0000,
968,810.21,12342.49,-12342.49,2325.4000,65535.0000,3907.4000,1582.0000,0.0000,0.0000,0.0000,
969,810.58,12336.78,-12336.78,2581.0000,65535.0000,4176.6000,1595.6000,0.0000,0.0000,0.0000,
970,810.96,12331.08,-12331.08,2581.0000,65535.0000,4191.8000,1610.8000,0.0000,0.0000,0.0000,
971,811.33,12325.39,-12325.39,3078.0000,65535.0000,4647.0000,1569.0000,0.0000,0.0000,0.0000,
972,811.71,12319.71,-12319.71,3160.0000,65535.0000,4693.2000,1533.2000,0.0000,0.0000,0.0000,
973,812.08,12314.04,-12314.04,2543.8000,65535.0000,4045.8000,1502.0000,0.0000,0.0000,0.0000,
974,812.46,12308.37,-12308.37,2793.6000,65535.0000,4404.8000,1611.2000,0.0000,0.0000,0.0000,
975,812.83,12302.72,-12302.72,2892.4000,65535.0000,4481.2000,1588.8000,0.0000,0.0000,0.0000,
976,813.20,12297.07,-12297.07,2666.2000,65535.0000,4231.8000,1565.6000,0.0000,0.0000,0.0000,
977,813.58,12291.43,-12291.43,2747.2000,65535.0000,4322.6000,1575.4000,0.0000,0.0000,0.0000,
978,813.95,12285.79,-12285.79,2436.0000,65535.0000,3971.8000,1535.8000,0.0000,0.0000,0.0000,
979,814.32,12280.17,-12280.17,2475.2000,65535.0000,3999.0000,1523.8000,0.0000,0.0000,0.0000,
980,814.69,12274.56,-12274.56,2467.6000,65535.0000,3988.4000,1520.8000,0.0000,0.0000,0.0000,
981,815.07,12268.95,-12268.95,2950.6000,65535.0000,4497.8000,1547.2000,0.0000,0.0000,0.0000,
982,815.44,12263.35,-12263.35,3090.6000,65535.0000,4455.4000,1364.8000,0.0000,0.0000,0.0000,
983,815.81,12257.76,-12257.76,3651.0000,65535.0000,4606.0000,955.0000,0.0000,0.0000,0.0000,
984,816.18,12252.18,-12252.18,2668.4000,65535.0000,4222.0000,1553.6000,0.0000,0.0000,0.0000,
985,816.55,12246.61,-12246.61,2970.2000,65535.0000,4554.8000,1584.6000,0.0000,0.0000,0.0000,
986,816.92,12241.04,-12241.04,2918.6000,65535.0000,4426.4000,1507.8000,0.0000,0.0000,0.0000,
987,817.29,12235.48,-12235.48,2692.4000,65535.0000,4287.4000,1595.0000,0.0000,0.0000,0.0000,
988,817.67,12229.94,-12229.94,2535.8000,65535.0000,4080.4000,1544.6000,0.0000,0.0000,0.0000,
989,818.04,12224.40,-12224.40,2749.4000,65535.0000,4257.2000,1507.8000,0.0000,0.0000,0.0000,
990,818.41,12218.86,-12218.86,2822.2000,65535.0000,4374.4000,1552.2000,0.0000,0.0000,0.0000,
991,818.78,12213.34,-12213.34,3449.6000,65535.0000,5031.8000,1582.2000,0.0000,0.0000,0.0000,
992,819.15,12207.82,-12207.82,2655.8000,65535.0000,4181.0000,1525.2000,0.0000,0.0000,0.0000,
993,819.52,12202.32,-12202.32,2835.8000,65535.0000,4384.6000,1548.8000,0.0000,0.0000,0.0000,
994,819.89,12196.82,-12196.82,2651.2000,65535.0000,4098.4000,1447.2000,0.0000,0.0000,0.0000,
995,820.26,12191.32,-12191.32,2371.0000,65535.0000,3892.4000,1521.4000,0.0000,0.0000,0.0000,
996,820.62,12185.84,-12185.84,2482.8000,65535.0000,4048.4000,1565.6000,0.0000,0.0000,0.0000,
997,820.99,12180.37,-12180.37,2746.6000,65535.0000,4276.0000,1529.4000,0.0000,0.0000,0.0000,
998,821.36,12174.90,-12174.90,3346.2000,65535.0000,4876.8000,1530.6000,0.0000,0.0000,0.0000,
999,821.73,12169.44,-12169.44,2724.2000,65535.0000,4231.6000,1507.4000,0.0000,0.0000,0.0000,
