File Version;BWSpec4.03_33_C
Date,2026-04-16 14:04:43
title,ZMYE
model,BRC1K
c code,ZMYE
operator,
port1,0
baud1,3
pixel_start,0
pixel_end,999
step,1
units,1
bkcolor,16777215
show_mode,3
data_mode,0
pixel_mode,0
intigration times(ms),10
average number,5
time_multiply,1
spectrometer_type ,71
yaxis,1
yaxis_min,-494
yaxis_max,65535
xaxis,0
xaxis_min,0
xaxis_max,999
irrands_DispWLMin,100
irrands_DispWLMax,1000
yaxis_min_6,0
yaxis_max_6,0
irradiance_unit,0
Color_Data_Flag,0
Color_StartWL,400
Color_EndWL,700
Color_IncWL,10
power_unit_index,3
photometric_index,0
Illuminant_index,3
observer_index,0
lab_l,0
lab_a,0
lab_b,0
radiometric_flag,0
coefs_a0,348.690626413622
coefs_a1,0.577242842360403
coefs_a2,-0.000102397725884922
coefs_a3,-1.43696470178894E-09
coefs_b0,-604.699216452593
coefs_b1,1.81821494738794
coefs_b2,-0.000542372268672448
coefs_b3,8.54199818797248E-07
coefs_r0,1
coefs_r1,0
coefs_r2,0
coefs_r3,0
coefs_j0,1
coefs_j1,0
coefs_j2,0
coefs_j3,0
enable_coefs_r,0
all_data_save,1
select_option,-1
interval_time,10
pixel_num,1000
sel_pixel_start,0
sel_pixel_end,968
sel_pixel_delta,1
dark_compensate,0
dark_compensate_value_1,0
dark_compensate_value_2,0
dark_compensate_value_3,0
monitor pixel_0,0
monitor pixel_1,0
monitor pixel_2,0
monitor pixel_3,0
monitor pixel_4,0
monitor pixel_5,0
vertical_select_flag,0
vertical_line3,0
vertical_line4,0
vertical_line3_wv,1
vertical_line4_wv,1
vertical_line_flag,0
vertical_line_ratio,0
laser_wavelength,0
laser_powerlevel,0
overlay_js,0
Relative Intensity Correction Flag,0
Pixel,Wavelength,Wavenumber,Raman Shift,Dark,Reference,Raw data #1,Dark Subtracted #1,%TR #1,Absorbance #1,Irradiance (lumen) #1,
0,348.69,28678.72,-28678.72,1566.2000,65535.0000,1751.8000,185.6000,0.0000,0.0000,0.0000,
1,349.27,28631.33,-28631.33,1573.2000,65535.0000,1758.2000,185.0000,0.0000,0.0000,0.0000,
2,349.84,28584.11,-28584.11,1581.2000,65535.0000,1734.4000,153.2000,0.0000,0.0000,0.0000,
3,350.42,28537.07,-28537.07,1587.4000,65535.0000,1756.4000,169.0000,0.0000,0.0000,0.0000,
4,351.00,28490.19,-28490.19,1574.6000,65535.0000,1775.4000,200.8000,0.0000,0.0000,0.0000,
5,351.57,28443.49,-28443.49,1584.2000,65535.0000,1757.8000,173.6000,0.0000,0.0000,0.0000,
6,352.15,28396.96,-28396.96,1570.8000,65535.0000,1754.6000,183.8000,0.0000,0.0000,0.0000,
7,352.73,28350.59,-28350.59,1588.4000,65535.0000,1782.6000,194.2000,0.0000,0.0000,0.0000,
8,353.30,28304.40,-28304.40,1556.2000,65535.0000,1791.0000,234.8000,0.0000,0.0000,0.0000,
9,353.88,28258.36,-28258.36,1567.4000,65535.0000,1776.4000,209.0000,0.0000,0.0000,0.0000,
10,354.45,28212.50,-28212.50,1578.4000,65535.0000,1785.8000,207.4000,0.0000,0.0000,0.0000,
11,355.03,28166.80,-28166.80,1554.0000,65535.0000,1751.4000,197.4000,0.0000,0.0000,0.0000,
12,355.60,28121.26,-28121.26,1578.8000,65535.0000,1768.8000,190.0000,0.0000,0.0000,0.0000,
13,356.18,28075.89,-28075.89,1573.6000,65535.0000,1758.8000,185.2000,0.0000,0.0000,0.0000,
14,356.75,28030.68,-28030.68,1582.4000,65535.0000,1797.0000,214.6000,0.0000,0.0000,0.0000,
15,357.33,27985.63,-27985.63,1578.4000,65535.0000,1779.4000,201.0000,0.0000,0.0000,0.0000,
16,357.90,27940.74,-27940.74,1577.0000,65535.0000,1783.0000,206.0000,0.0000,0.0000,0.0000,
17,358.47,27896.01,-27896.01,1576.4000,65535.0000,1763.6000,187.2000,0.0000,0.0000,0.0000,
18,359.05,27851.44,-27851.44,1571.2000,65535.0000,1785.0000,213.8000,0.0000,0.0000,0.0000,
19,359.62,27807.03,-27807.03,1587.4000,65535.0000,1778.2000,190.8000,0.0000,0.0000,0.0000,
20,360.19,27762.78,-27762.78,1587.2000,65535.0000,1781.8000,194.6000,0.0000,0.0000,0.0000,
21,360.77,27718.68,-27718.68,1581.2000,65535.0000,1718.6000,137.4000,0.0000,0.0000,0.0000,
22,361.34,27674.74,-27674.74,1576.2000,65535.0000,1754.0000,177.8000,0.0000,0.0000,0.0000,
23,361.91,27630.95,-27630.95,1581.0000,65535.0000,1752.4000,171.4000,0.0000,0.0000,0.0000,
24,362.49,27587.31,-27587.31,1587.8000,65535.0000,1785.0000,197.2000,0.0000,0.0000,0.0000,
25,363.06,27543.83,-27543.83,1564.2000,65535.0000,1771.2000,207.0000,0.0000,0.0000,0.0000,
26,363.63,27500.50,-27500.50,1606.8000,65535.0000,1774.0000,167.2000,0.0000,0.0000,0.0000,
27,364.20,27457.33,-27457.33,1570.4000,65535.0000,1790.2000,219.8000,0.0000,0.0000,0.0000,
28,364.77,27414.30,-27414.30,1592.6000,65535.0000,1786.8000,194.2000,0.0000,0.0000,0.0000,
29,365.34,27371.42,-27371.42,1576.4000,65535.0000,1786.8000,210.4000,0.0000,0.0000,0.0000,
30,365.92,27328.70,-27328.70,1563.4000,65535.0000,1760.6000,197.2000,0.0000,0.0000,0.0000,
31,366.49,27286.12,-27286.12,1553.2000,65535.0000,1802.4000,249.2000,0.0000,0.0000,0.0000,
32,367.06,27243.69,-27243.69,1590.0000,65535.0000,1793.8000,203.8000,0.0000,0.0000,0.0000,
33,367.63,27201.40,-27201.40,1568.8000,65535.0000,1766.2000,197.4000,0.0000,0.0000,0.0000,
34,368.20,27159.27,-27159.27,1583.2000,65535.0000,1774.0000,190.8000,0.0000,0.0000,0.0000,
35,368.77,27117.27,-27117.27,1596.0000,65535.0000,1787.2000,191.2000,0.0000,0.0000,0.0000,
36,369.34,27075.43,-27075.43,1595.8000,65535.0000,1790.8000,195.0000,0.0000,0.0000,0.0000,
37,369.91,27033.72,-27033.72,1580.0000,65535.0000,1789.0000,209.0000,0.0000,0.0000,0.0000,
38,370.48,26992.16,-26992.16,1557.4000,65535.0000,1792.6000,235.2000,0.0000,0.0000,0.0000,
39,371.05,26950.74,-26950.74,1565.6000,65535.0000,1781.4000,215.8000,0.0000,0.0000,0.0000,
40,371.62,26909.47,-26909.47,1576.4000,65535.0000,1790.2000,213.8000,0.0000,0.0000,0.0000,
41,372.19,26868.33,-26868.33,1575.0000,65535.0000,1814.8000,239.8000,0.0000,0.0000,0.0000,
42,372.75,26827.34,-26827.34,1589.2000,65535.0000,1805.4000,216.2000,0.0000,0.0000,0.0000,
43,373.32,26786.48,-26786.48,1571.8000,65535.0000,1778.4000,206.6000,0.0000,0.0000,0.0000,
44,373.89,26745.77,-26745.77,1570.2000,65535.0000,1792.8000,222.6000,0.0000,0.0000,0.0000,
45,374.46,26705.19,-26705.19,1572.2000,65535.0000,1822.2000,250.0000,0.0000,0.0000,0.0000,
46,375.03,26664.75,-26664.75,1595.4000,65535.0000,1831.8000,236.4000,0.0000,0.0000,0.0000,
47,375.59,26624.44,-26624.44,1586.0000,65535.0000,1841.0000,255.0000,0.0000,0.0000,0.0000,
48,376.16,26584.28,-26584.28,1567.8000,65535.0000,1845.6000,277.8000,0.0000,0.0000,0.0000,
49,376.73,26544.24,-26544.24,1566.2000,65535.0000,1830.4000,264.2000,0.0000,0.0000,0.0000,
50,377.30,26504.35,-26504.35,1565.8000,65535.0000,1856.8000,291.0000,0.0000,0.0000,0.0000,
51,377.86,26464.58,-26464.58,1587.2000,65535.0000,1868.6000,281.4000,0.0000,0.0000,0.0000,
52,378.43,26424.95,-26424.95,1597.0000,65535.0000,1870.0000,273.0000,0.0000,0.0000,0.0000,
53,379.00,26385.46,-26385.46,1593.2000,65535.0000,1849.2000,256.0000,0.0000,0.0000,0.0000,
54,379.56,26346.09,-26346.09,1585.6000,65535.0000,1875.0000,289.4000,0.0000,0.0000,0.0000,
55,380.13,26306.86,-26306.86,1568.8000,65535.0000,1878.0000,309.2000,0.0000,0.0000,0.0000,
56,380.69,26267.76,-26267.76,1582.0000,65535.0000,1867.0000,285.0000,0.0000,0.0000,0.0000,
57,381.26,26228.78,-26228.78,1596.6000,65535.0000,1864.4000,267.8000,0.0000,0.0000,0.0000,
58,381.83,26189.94,-26189.94,1563.6000,65535.0000,1898.8000,335.2000,0.0000,0.0000,0.0000,
59,382.39,26151.23,-26151.23,1594.2000,65535.0000,1890.0000,295.8000,0.0000,0.0000,0.0000,
60,382.96,26112.64,-26112.64,1584.6000,65535.0000,1898.8000,314.2000,0.0000,0.0000,0.0000,
61,383.52,26074.19,-26074.19,1588.0000,65535.0000,1928.2000,340.2000,0.0000,0.0000,0.0000,
62,384.09,26035.85,-26035.85,1577.4000,65535.0000,1935.2000,357.8000,0.0000,0.0000,0.0000,
63,384.65,25997.65,-25997.65,1569.6000,65535.0000,1897.4000,327.8000,0.0000,0.0000,0.0000,
64,385.21,25959.57,-25959.57,1580.4000,65535.0000,1932.2000,351.8000,0.0000,0.0000,0.0000,
65,385.78,25921.62,-25921.62,1574.2000,65535.0000,1945.2000,371.0000,0.0000,0.0000,0.0000,
66,386.34,25883.79,-25883.79,1589.2000,65535.0000,1961.0000,371.8000,0.0000,0.0000,0.0000,
67,386.91,25846.08,-25846.08,1574.4000,65535.0000,1969.2000,394.8000,0.0000,0.0000,0.0000,
68,387.47,25808.50,-25808.50,1572.0000,65535.0000,1970.4000,398.4000,0.0000,0.0000,0.0000,
69,388.03,25771.04,-25771.04,1577.4000,65535.0000,1963.4000,386.0000,0.0000,0.0000,0.0000,
70,388.60,25733.71,-25733.71,1561.0000,65535.0000,1982.8000,421.8000,0.0000,0.0000,0.0000,
71,389.16,25696.49,-25696.49,1574.6000,65535.0000,1977.2000,402.6000,0.0000,0.0000,0.0000,
72,389.72,25659.40,-25659.40,1564.2000,65535.0000,2023.0000,458.8000,0.0000,0.0000,0.0000,
73,390.28,25622.43,-25622.43,1569.6000,65535.0000,2049.8000,480.2000,0.0000,0.0000,0.0000,
74,390.85,25585.57,-25585.57,1560.0000,65535.0000,2048.0000,488.0000,0.0000,0.0000,0.0000,
75,391.41,25548.84,-25548.84,1562.8000,65535.0000,2052.0000,489.2000,0.0000,0.0000,0.0000,
76,391.97,25512.22,-25512.22,1559.2000,65535.0000,2074.6000,515.4000,0.0000,0.0000,0.0000,
77,392.53,25475.72,-25475.72,1568.6000,65535.0000,2057.2000,488.6000,0.0000,0.0000,0.0000,
78,393.09,25439.34,-25439.34,1578.6000,65535.0000,2052.6000,474.0000,0.0000,0.0000,0.0000,
79,393.65,25403.08,-25403.08,1568.4000,65535.0000,2097.0000,528.6000,0.0000,0.0000,0.0000,
80,394.21,25366.93,-25366.93,1563.4000,65535.0000,2074.2000,510.8000,0.0000,0.0000,0.0000,
81,394.77,25330.90,-25330.90,1591.6000,65535.0000,2102.6000,511.0000,0.0000,0.0000,0.0000,
82,395.34,25294.99,-25294.99,1561.4000,65535.0000,2126.2000,564.8000,0.0000,0.0000,0.0000,
83,395.90,25259.19,-25259.19,1577.0000,65535.0000,2136.2000,559.2000,0.0000,0.0000,0.0000,
84,396.46,25223.50,-25223.50,1557.4000,65535.0000,2129.4000,572.0000,0.0000,0.0000,0.0000,
85,397.02,25187.93,-25187.93,1567.2000,65535.0000,2137.4000,570.2000,0.0000,0.0000,0.0000,
86,397.58,25152.47,-25152.47,1566.4000,65535.0000,2137.2000,570.8000,0.0000,0.0000,0.0000,
87,398.13,25117.12,-25117.12,1585.6000,65535.0000,2130.6000,545.0000,0.0000,0.0000,0.0000,
88,398.69,25081.89,-25081.89,1556.2000,65535.0000,2173.6000,617.4000,0.0000,0.0000,0.0000,
89,399.25,25046.77,-25046.77,1573.4000,65535.0000,2170.8000,597.4000,0.0000,0.0000,0.0000,
90,399.81,25011.75,-25011.75,1591.6000,65535.0000,2164.4000,572.8000,0.0000,0.0000,0.0000,
91,400.37,24976.85,-24976.85,1577.4000,65535.0000,2206.4000,629.0000,0.0000,0.0000,0.0000,
92,400.93,24942.06,-24942.06,1573.0000,65535.0000,2213.2000,640.2000,0.0000,0.0000,0.0000,
93,401.49,24907.38,-24907.38,1578.2000,65535.0000,2202.6000,624.4000,0.0000,0.0000,0.0000,
94,402.05,24872.81,-24872.81,1574.6000,65535.0000,2230.0000,655.4000,0.0000,0.0000,0.0000,
95,402.60,24838.34,-24838.34,1602.0000,65535.0000,2260.0000,658.0000,0.0000,0.0000,0.0000,
96,403.16,24803.99,-24803.99,1605.4000,65535.0000,2271.6000,666.2000,0.0000,0.0000,0.0000,
97,403.72,24769.74,-24769.74,1587.6000,65535.0000,2267.4000,679.8000,0.0000,0.0000,0.0000,
98,404.28,24735.60,-24735.60,1576.2000,65535.0000,2278.4000,702.2000,0.0000,0.0000,0.0000,
99,404.83,24701.56,-24701.56,1575.6000,65535.0000,2302.4000,726.8000,0.0000,0.0000,0.0000,
100,405.39,24667.63,-24667.63,1572.6000,65535.0000,2322.4000,749.8000,0.0000,0.0000,0.0000,
101,405.95,24633.81,-24633.81,1582.6000,65535.0000,2340.0000,757.4000,0.0000,0.0000,0.0000,
102,406.50,24600.09,-24600.09,1560.4000,65535.0000,2368.6000,808.2000,0.0000,0.0000,0.0000,
103,407.06,24566.48,-24566.48,1559.4000,65535.0000,2407.2000,847.8000,0.0000,0.0000,0.0000,
104,407.61,24532.97,-24532.97,1598.8000,65535.0000,2393.4000,794.6000,0.0000,0.0000,0.0000,
105,408.17,24499.56,-24499.56,1603.4000,65535.0000,2383.4000,780.0000,0.0000,0.0000,0.0000,
106,408.73,24466.26,-24466.26,1554.2000,65535.0000,2395.2000,841.0000,0.0000,0.0000,0.0000,
107,409.28,24433.06,-24433.06,1557.8000,65535.0000,2448.8000,891.0000,0.0000,0.0000,0.0000,
108,409.84,24399.96,-24399.96,1572.8000,65535.0000,2461.8000,889.0000,0.0000,0.0000,0.0000,
109,410.39,24366.97,-24366.97,1600.8000,65535.0000,2460.8000,860.0000,0.0000,0.0000,0.0000,
110,410.95,24334.07,-24334.07,1579.8000,65535.0000,2478.0000,898.2000,0.0000,0.0000,0.0000,
111,411.50,24301.28,-24301.28,1586.8000,65535.0000,2498.0000,911.2000,0.0000,0.0000,0.0000,
112,412.06,24268.59,-24268.59,1586.8000,65535.0000,2505.4000,918.6000,0.0000,0.0000,0.0000,
113,412.61,24235.99,-24235.99,1593.8000,65535.0000,2539.6000,945.8000,0.0000,0.0000,0.0000,
114,413.16,24203.50,-24203.50,1567.0000,65535.0000,2540.4000,973.4000,0.0000,0.0000,0.0000,
115,413.72,24171.10,-24171.10,1551.6000,65535.0000,2545.4000,993.8000,0.0000,0.0000,0.0000,
116,414.27,24138.81,-24138.81,1572.8000,65535.0000,2599.2000,1026.4000,0.0000,0.0000,0.0000,
117,414.82,24106.61,-24106.61,1581.4000,65535.0000,2581.8000,1000.4000,0.0000,0.0000,0.0000,
118,415.38,24074.51,-24074.51,1575.8000,65535.0000,2600.4000,1024.6000,0.0000,0.0000,0.0000,
119,415.93,24042.50,-24042.50,1578.0000,65535.0000,2636.2000,1058.2000,0.0000,0.0000,0.0000,
120,416.48,24010.60,-24010.60,1591.8000,65535.0000,2632.4000,1040.6000,0.0000,0.0000,0.0000,
121,417.04,23978.79,-23978.79,1582.8000,65535.0000,2656.4000,1073.6000,0.0000,0.0000,0.0000,
122,417.59,23947.07,-23947.07,1553.8000,65535.0000,2661.6000,1107.8000,0.0000,0.0000,0.0000,
123,418.14,23915.46,-23915.46,1563.0000,65535.0000,2710.8000,1147.8000,0.0000,0.0000,0.0000,
124,418.69,23883.93,-23883.93,1567.8000,65535.0000,2667.2000,1099.4000,0.0000,0.0000,0.0000,
125,419.24,23852.50,-23852.50,1579.8000,65535.0000,2700.4000,1120.6000,0.0000,0.0000,0.0000,
126,419.79,23821.17,-23821.17,1551.8000,65535.0000,2720.4000,1168.6000,0.0000,0.0000,0.0000,
127,420.35,23789.93,-23789.93,1577.2000,65535.0000,2766.6000,1189.4000,0.0000,0.0000,0.0000,
128,420.90,23758.78,-23758.78,1572.8000,65535.0000,2775.0000,1202.2000,0.0000,0.0000,0.0000,
129,421.45,23727.73,-23727.73,1569.0000,65535.0000,2814.0000,1245.0000,0.0000,0.0000,0.0000,
130,422.00,23696.77,-23696.77,1600.4000,65535.0000,2817.0000,1216.6000,0.0000,0.0000,0.0000,
131,422.55,23665.90,-23665.90,1585.4000,65535.0000,2833.8000,1248.4000,0.0000,0.0000,0.0000,
132,423.10,23635.12,-23635.12,1574.4000,65535.0000,2896.8000,1322.4000,0.0000,0.0000,0.0000,
133,423.65,23604.43,-23604.43,1562.2000,65535.0000,2880.6000,1318.4000,0.0000,0.0000,0.0000,
134,424.20,23573.84,-23573.84,1589.0000,65535.0000,2941.8000,1352.8000,0.0000,0.0000,0.0000,
135,424.75,23543.33,-23543.33,1563.6000,65535.0000,2942.8000,1379.2000,0.0000,0.0000,0.0000,
136,425.30,23512.92,-23512.92,1570.2000,65535.0000,2945.2000,1375.0000,0.0000,0.0000,0.0000,
137,425.85,23482.60,-23482.60,1592.2000,65535.0000,2982.8000,1390.6000,0.0000,0.0000,0.0000,
138,426.40,23452.36,-23452.36,1578.6000,65535.0000,3004.0000,1425.4000,0.0000,0.0000,0.0000,
139,426.95,23422.22,-23422.22,1570.0000,65535.0000,3071.0000,1501.0000,0.0000,0.0000,0.0000,
140,427.49,23392.16,-23392.16,1568.0000,65535.0000,3097.2000,1529.2000,0.0000,0.0000,0.0000,
141,428.04,23362.19,-23362.19,1592.8000,65535.0000,3125.8000,1533.0000,0.0000,0.0000,0.0000,
142,428.59,23332.31,-23332.31,1569.6000,65535.0000,3156.6000,1587.0000,0.0000,0.0000,0.0000,
143,429.14,23302.52,-23302.52,1572.4000,65535.0000,3156.8000,1584.4000,0.0000,0.0000,0.0000,
144,429.69,23272.81,-23272.81,1573.4000,65535.0000,3202.0000,1628.6000,0.0000,0.0000,0.0000,
145,430.23,23243.19,-23243.19,1567.0000,65535.0000,3227.0000,1660.0000,0.0000,0.0000,0.0000,
146,430.78,23213.66,-23213.66,1583.0000,65535.0000,3279.2000,1696.2000,0.0000,0.0000,0.0000,
147,431.33,23184.21,-23184.21,1571.8000,65535.0000,3299.2000,1727.4000,0.0000,0.0000,0.0000,
148,431.87,23154.85,-23154.85,1559.4000,65535.0000,3332.0000,1772.6000,0.0000,0.0000,0.0000,
149,432.42,23125.57,-23125.57,1573.0000,65535.0000,3351.8000,1778.8000,0.0000,0.0000,0.0000,
150,432.97,23096.38,-23096.38,1588.8000,65535.0000,3388.0000,1799.2000,0.0000,0.0000,0.0000,
151,433.51,23067.28,-23067.28,1558.0000,65535.0000,3411.4000,1853.4000,0.0000,0.0000,0.0000,
152,434.06,23038.25,-23038.25,1575.4000,65535.0000,3394.6000,1819.2000,0.0000,0.0000,0.0000,
153,434.61,23009.31,-23009.31,1583.2000,65535.0000,3475.8000,1892.6000,0.0000,0.0000,0.0000,
154,435.15,22980.46,-22980.46,1596.2000,65535.0000,3526.0000,1929.8000,0.0000,0.0000,0.0000,
155,435.70,22951.69,-22951.69,1578.6000,65535.0000,3523.6000,1945.0000,0.0000,0.0000,0.0000,
156,436.24,22923.00,-22923.00,1563.6000,65535.0000,3555.0000,1991.4000,0.0000,0.0000,0.0000,
157,436.79,22894.39,-22894.39,1554.4000,65535.0000,3591.4000,2037.0000,0.0000,0.0000,0.0000,
158,437.33,22865.87,-22865.87,1562.0000,65535.0000,3554.2000,1992.2000,0.0000,0.0000,0.0000,
159,437.88,22837.42,-22837.42,1533.4000,65535.0000,3563.0000,2029.6000,0.0000,0.0000,0.0000,
160,438.42,22809.06,-22809.06,1564.6000,65535.0000,3652.6000,2088.0000,0.0000,0.0000,0.0000,
161,438.97,22780.78,-22780.78,1569.4000,65535.0000,3670.2000,2100.8000,0.0000,0.0000,0.0000,
162,439.51,22752.58,-22752.58,1596.2000,65535.0000,3704.4000,2108.2000,0.0000,0.0000,0.0000,
163,440.05,22724.46,-22724.46,1571.8000,65535.0000,3712.0000,2140.2000,0.0000,0.0000,0.0000,
164,440.60,22696.42,-22696.42,1597.4000,65535.0000,3779.8000,2182.4000,0.0000,0.0000,0.0000,
165,441.14,22668.47,-22668.47,1579.2000,65535.0000,3786.8000,2207.6000,0.0000,0.0000,0.0000,
166,441.68,22640.59,-22640.59,1575.6000,65535.0000,3826.0000,2250.4000,0.0000,0.0000,0.0000,
167,442.23,22612.78,-22612.78,1570.4000,65535.0000,3824.0000,2253.6000,0.0000,0.0000,0.0000,
168,442.77,22585.06,-22585.06,1570.4000,65535.0000,3875.8000,2305.4000,0.0000,0.0000,0.0000,
169,443.31,22557.42,-22557.42,1562.6000,65535.0000,3925.8000,2363.2000,0.0000,0.0000,0.0000,
170,443.86,22529.85,-22529.85,1581.2000,65535.0000,3944.2000,2363.0000,0.0000,0.0000,0.0000,
171,444.40,22502.36,-22502.36,1546.8000,65535.0000,4020.2000,2473.4000,0.0000,0.0000,0.0000,
172,444.94,22474.95,-22474.95,1574.0000,65535.0000,4012.2000,2438.2000,0.0000,0.0000,0.0000,
173,445.48,22447.62,-22447.62,1585.6000,65535.0000,4046.0000,2460.4000,0.0000,0.0000,0.0000,
174,446.02,22420.36,-22420.36,1584.4000,65535.0000,4042.2000,2457.8000,0.0000,0.0000,0.0000,
175,446.56,22393.18,-22393.18,1583.0000,65535.0000,4161.4000,2578.4000,0.0000,0.0000,0.0000,
176,447.11,22366.08,-22366.08,1568.4000,65535.0000,4170.2000,2601.8000,0.0000,0.0000,0.0000,
177,447.65,22339.05,-22339.05,1578.0000,65535.0000,4254.0000,2676.0000,0.0000,0.0000,0.0000,
178,448.19,22312.10,-22312.10,1573.2000,65535.0000,4232.6000,2659.4000,0.0000,0.0000,0.0000,
179,448.73,22285.22,-22285.22,1564.0000,65535.0000,4305.4000,2741.4000,0.0000,0.0000,0.0000,
180,449.27,22258.42,-22258.42,1584.4000,65535.0000,4306.0000,2721.6000,0.0000,0.0000,0.0000,
181,449.81,22231.69,-22231.69,1578.0000,65535.0000,4362.8000,2784.8000,0.0000,0.0000,0.0000,
182,450.35,22205.03,-22205.03,1581.8000,65535.0000,4425.0000,2843.2000,0.0000,0.0000,0.0000,
183,450.89,22178.45,-22178.45,1592.6000,65535.0000,4514.2000,2921.6000,0.0000,0.0000,0.0000,
184,451.43,22151.95,-22151.95,1596.0000,65535.0000,4571.6000,2975.6000,0.0000,0.0000,0.0000,
185,451.97,22125.51,-22125.51,1602.4000,65535.0000,4590.0000,2987.6000,0.0000,0.0000,0.0000,
186,452.51,22099.15,-22099.15,1573.2000,65535.0000,4594.2000,3021.0000,0.0000,0.0000,0.0000,
187,453.04,22072.87,-22072.87,1563.8000,65535.0000,4711.8000,3148.0000,0.0000,0.0000,0.0000,
188,453.58,22046.65,-22046.65,1578.2000,65535.0000,4681.4000,3103.2000,0.0000,0.0000,0.0000,
189,454.12,22020.51,-22020.51,1563.2000,65535.0000,4789.0000,3225.8000,0.0000,0.0000,0.0000,
190,454.66,21994.44,-21994.44,1558.6000,65535.0000,4845.2000,3286.6000,0.0000,0.0000,0.0000,
191,455.20,21968.44,-21968.44,1551.2000,65535.0000,4920.2000,3369.0000,0.0000,0.0000,0.0000,
192,455.74,21942.51,-21942.51,1577.0000,65535.0000,4886.8000,3309.8000,0.0000,0.0000,0.0000,
193,456.27,21916.66,-21916.66,1557.2000,65535.0000,5024.6000,3467.4000,0.0000,0.0000,0.0000,
194,456.81,21890.87,-21890.87,1568.2000,65535.0000,5083.8000,3515.6000,0.0000,0.0000,0.0000,
195,457.35,21865.16,-21865.16,1586.0000,65535.0000,5085.0000,3499.0000,0.0000,0.0000,0.0000,
196,457.89,21839.51,-21839.51,1572.4000,65535.0000,5134.8000,3562.4000,0.0000,0.0000,0.0000,
197,458.42,21813.94,-21813.94,1580.8000,65535.0000,5196.4000,3615.6000,0.0000,0.0000,0.0000,
198,458.96,21788.43,-21788.43,1587.8000,65535.0000,5278.8000,3691.0000,0.0000,0.0000,0.0000,
199,459.50,21763.00,-21763.00,1572.4000,65535.0000,5344.4000,3772.0000,0.0000,0.0000,0.0000,
200,460.03,21737.63,-21737.63,1589.0000,65535.0000,5378.0000,3789.0000,0.0000,0.0000,0.0000,
201,460.57,21712.33,-21712.33,1572.6000,65535.0000,5414.2000,3841.6000,0.0000,0.0000,0.0000,
202,461.10,21687.10,-21687.10,1591.0000,65535.0000,5534.2000,3943.2000,0.0000,0.0000,0.0000,
203,461.64,21661.94,-21661.94,1601.0000,65535.0000,5537.4000,3936.4000,0.0000,0.0000,0.0000,
204,462.17,21636.85,-21636.85,1594.6000,65535.0000,5530.0000,3935.4000,0.0000,0.0000,0.0000,
205,462.71,21611.82,-21611.82,1570.8000,65535.0000,5590.4000,4019.6000,0.0000,0.0000,0.0000,
206,463.24,21586.86,-21586.86,1594.8000,65535.0000,5604.2000,4009.4000,0.0000,0.0000,0.0000,
207,463.78,21561.97,-21561.97,1585.2000,65535.0000,5669.0000,4083.8000,0.0000,0.0000,0.0000,
208,464.31,21537.15,-21537.15,1592.2000,65535.0000,5710.6000,4118.4000,0.0000,0.0000,0.0000,
209,464.85,21512.39,-21512.39,1568.2000,65535.0000,5820.0000,4251.8000,0.0000,0.0000,0.0000,
210,465.38,21487.70,-21487.70,1566.2000,65535.0000,5853.6000,4287.4000,0.0000,0.0000,0.0000,
211,465.92,21463.07,-21463.07,1570.0000,65535.0000,5917.2000,4347.2000,0.0000,0.0000,0.0000,
212,466.45,21438.51,-21438.51,1562.2000,65535.0000,5922.6000,4360.4000,0.0000,0.0000,0.0000,
213,466.98,21414.02,-21414.02,1584.8000,65535.0000,6077.0000,4492.2000,0.0000,0.0000,0.0000,
214,467.52,21389.59,-21389.59,1605.2000,65535.0000,6130.2000,4525.0000,0.0000,0.0000,0.0000,
215,468.05,21365.23,-21365.23,1585.8000,65535.0000,6256.8000,4671.0000,0.0000,0.0000,0.0000,
216,468.58,21340.93,-21340.93,1593.8000,65535.0000,6278.4000,4684.6000,0.0000,0.0000,0.0000,
217,469.12,21316.70,-21316.70,1567.6000,65535.0000,6414.2000,4846.6000,0.0000,0.0000,0.0000,
218,469.65,21292.53,-21292.53,1582.8000,65535.0000,6487.6000,4904.8000,0.0000,0.0000,0.0000,
219,470.18,21268.42,-21268.42,1571.6000,65535.0000,6529.0000,4957.4000,0.0000,0.0000,0.0000,
220,470.71,21244.38,-21244.38,1570.4000,65535.0000,6718.0000,5147.6000,0.0000,0.0000,0.0000,
221,471.24,21220.40,-21220.40,1584.8000,65535.0000,6857.0000,5272.2000,0.0000,0.0000,0.0000,
222,471.78,21196.49,-21196.49,1565.8000,65535.0000,6904.8000,5339.0000,0.0000,0.0000,0.0000,
223,472.31,21172.64,-21172.64,1581.2000,65535.0000,7064.2000,5483.0000,0.0000,0.0000,0.0000,
224,472.84,21148.85,-21148.85,1561.0000,65535.0000,7094.8000,5533.8000,0.0000,0.0000,0.0000,
225,473.37,21125.12,-21125.12,1551.2000,65535.0000,7356.2000,5805.0000,0.0000,0.0000,0.0000,
226,473.90,21101.46,-21101.46,1579.2000,65535.0000,7418.4000,5839.2000,0.0000,0.0000,0.0000,
227,474.43,21077.86,-21077.86,1591.2000,65535.0000,7507.0000,5915.8000,0.0000,0.0000,0.0000,
228,474.96,21054.32,-21054.32,1585.4000,65535.0000,7729.6000,6144.2000,0.0000,0.0000,0.0000,
229,475.49,21030.84,-21030.84,1588.0000,65535.0000,7904.2000,6316.2000,0.0000,0.0000,0.0000,
230,476.02,21007.43,-21007.43,1585.0000,65535.0000,8163.4000,6578.4000,0.0000,0.0000,0.0000,
231,476.55,20984.07,-20984.07,1577.2000,65535.0000,8242.6000,6665.4000,0.0000,0.0000,0.0000,
232,477.08,20960.78,-20960.78,1561.0000,65535.0000,8403.0000,6842.0000,0.0000,0.0000,0.0000,
233,477.61,20937.54,-20937.54,1566.4000,65535.0000,8605.0000,7038.6000,0.0000,0.0000,0.0000,
234,478.14,20914.37,-20914.37,1600.0000,65535.0000,8803.8000,7203.8000,0.0000,0.0000,0.0000,
235,478.67,20891.26,-20891.26,1595.4000,65535.0000,9012.8000,7417.4000,0.0000,0.0000,0.0000,
236,479.20,20868.20,-20868.20,1567.0000,65535.0000,9279.6000,7712.6000,0.0000,0.0000,0.0000,
237,479.73,20845.21,-20845.21,1585.2000,65535.0000,9385.8000,7800.6000,0.0000,0.0000,0.0000,
238,480.25,20822.28,-20822.28,1579.4000,65535.0000,9610.6000,8031.2000,0.0000,0.0000,0.0000,
239,480.78,20799.40,-20799.40,1567.2000,65535.0000,9829.2000,8262.0000,0.0000,0.0000,0.0000,
240,481.31,20776.59,-20776.59,1573.0000,65535.0000,10115.2000,8542.2000,0.0000,0.0000,0.0000,
241,481.84,20753.83,-20753.83,1571.4000,65535.0000,10304.0000,8732.6000,0.0000,0.0000,0.0000,
242,482.37,20731.14,-20731.14,1579.2000,65535.0000,10521.4000,8942.2000,0.0000,0.0000,0.0000,
243,482.89,20708.50,-20708.50,1560.0000,65535.0000,10779.8000,9219.8000,0.0000,0.0000,0.0000,
244,483.42,20685.92,-20685.92,1574.4000,65535.0000,11105.6000,9531.2000,0.0000,0.0000,0.0000,
245,483.95,20663.40,-20663.40,1559.6000,65535.0000,11233.0000,9673.4000,0.0000,0.0000,0.0000,
246,484.47,20640.93,-20640.93,1566.8000,65535.0000,11508.0000,9941.2000,0.0000,0.0000,0.0000,
247,485.00,20618.52,-20618.52,1589.4000,65535.0000,11706.4000,10117.0000,0.0000,0.0000,0.0000,
248,485.53,20596.17,-20596.17,1586.2000,65535.0000,12011.2000,10425.0000,0.0000,0.0000,0.0000,
249,486.05,20573.88,-20573.88,1577.6000,65535.0000,12267.8000,10690.2000,0.0000,0.0000,0.0000,
250,486.58,20551.65,-20551.65,1546.4000,65535.0000,12395.4000,10849.0000,0.0000,0.0000,0.0000,
251,487.10,20529.47,-20529.47,1538.8000,65535.0000,12711.0000,11172.2000,0.0000,0.0000,0.0000,
252,487.63,20507.35,-20507.35,1572.6000,65535.0000,12878.6000,11306.0000,0.0000,0.0000,0.0000,
253,488.16,20485.28,-20485.28,1577.4000,65535.0000,13045.0000,11467.6000,0.0000,0.0000,0.0000,
254,488.68,20463.27,-20463.27,1558.6000,65535.0000,13267.0000,11708.4000,0.0000,0.0000,0.0000,
255,489.21,20441.32,-20441.32,1582.4000,65535.0000,13519.8000,11937.4000,0.0000,0.0000,0.0000,
256,489.73,20419.42,-20419.42,1577.6000,65535.0000,13662.6000,12085.0000,0.0000,0.0000,0.0000,
257,490.25,20397.57,-20397.57,1588.4000,65535.0000,13743.8000,12155.4000,0.0000,0.0000,0.0000,
258,490.78,20375.79,-20375.79,1598.6000,65535.0000,14056.6000,12458.0000,0.0000,0.0000,0.0000,
259,491.30,20354.05,-20354.05,1577.2000,65535.0000,14270.8000,12693.6000,0.0000,0.0000,0.0000,
260,491.83,20332.38,-20332.38,1552.0000,65535.0000,14387.6000,12835.6000,0.0000,0.0000,0.0000,
261,492.35,20310.75,-20310.75,1561.6000,65535.0000,14557.2000,12995.6000,0.0000,0.0000,0.0000,
262,492.87,20289.19,-20289.19,1596.6000,65535.0000,14733.4000,13136.8000,0.0000,0.0000,0.0000,
263,493.40,20267.67,-20267.67,1584.6000,65535.0000,14750.2000,13165.6000,0.0000,0.0000,0.0000,
264,493.92,20246.21,-20246.21,1589.8000,65535.0000,14915.2000,13325.4000,0.0000,0.0000,0.0000,
265,494.44,20224.80,-20224.80,1590.4000,65535.0000,15139.8000,13549.4000,0.0000,0.0000,0.0000,
266,494.96,20203.45,-20203.45,1551.0000,65535.0000,15181.8000,13630.8000,0.0000,0.0000,0.0000,
267,495.49,20182.15,-20182.15,1561.2000,65535.0000,15423.4000,13862.2000,0.0000,0.0000,0.0000,
268,496.01,20160.91,-20160.91,1561.4000,65535.0000,15504.6000,13943.2000,0.0000,0.0000,0.0000,
269,496.53,20139.71,-20139.71,1561.0000,65535.0000,15639.6000,14078.6000,0.0000,0.0000,0.0000,
270,497.05,20118.57,-20118.57,1567.8000,65535.0000,15760.2000,14192.4000,0.0000,0.0000,0.0000,
271,497.57,20097.49,-20097.49,1571.6000,65535.0000,15973.0000,14401.4000,0.0000,0.0000,0.0000,
272,498.10,20076.45,-20076.45,1572.4000,65535.0000,16080.0000,14507.6000,0.0000,0.0000,0.0000,
273,498.62,20055.47,-20055.47,1582.0000,65535.0000,16130.2000,14548.2000,0.0000,0.0000,0.0000,
274,499.14,20034.54,-20034.54,1590.8000,65535.0000,16382.2000,14791.4000,0.0000,0.0000,0.0000,
275,499.66,20013.66,-20013.66,1557.2000,65535.0000,16524.8000,14967.6000,0.0000,0.0000,0.0000,
276,500.18,19992.83,-19992.83,1567.0000,65535.0000,16768.4000,15201.4000,0.0000,0.0000,0.0000,
277,500.70,19972.06,-19972.06,1554.8000,65535.0000,16880.4000,15325.6000,0.0000,0.0000,0.0000,
278,501.22,19951.34,-19951.34,1577.2000,65535.0000,16998.0000,15420.8000,0.0000,0.0000,0.0000,
279,501.74,19930.66,-19930.66,1551.4000,65535.0000,17084.4000,15533.0000,0.0000,0.0000,0.0000,
280,502.26,19910.04,-19910.04,1552.6000,65535.0000,17236.8000,15684.2000,0.0000,0.0000,0.0000,
281,502.78,19889.47,-19889.47,1577.8000,65535.0000,17461.2000,15883.4000,0.0000,0.0000,0.0000,
282,503.30,19868.95,-19868.95,1567.6000,65535.0000,17685.4000,16117.8000,0.0000,0.0000,0.0000,
283,503.82,19848.48,-19848.48,1584.8000,65535.0000,17851.6000,16266.8000,0.0000,0.0000,0.0000,
284,504.34,19828.06,-19828.06,1583.8000,65535.0000,17972.0000,16388.2000,0.0000,0.0000,0.0000,
285,504.85,19807.69,-19807.69,1579.6000,65535.0000,17997.8000,16418.2000,0.0000,0.0000,0.0000,
286,505.37,19787.38,-19787.38,1562.4000,65535.0000,18231.8000,16669.4000,0.0000,0.0000,0.0000,
287,505.89,19767.11,-19767.11,1601.8000,65535.0000,18511.6000,16909.8000,0.0000,0.0000,0.0000,
288,506.41,19746.89,-19746.89,1589.8000,65535.0000,18630.2000,17040.4000,0.0000,0.0000,0.0000,
289,506.93,19726.72,-19726.72,1594.2000,65535.0000,18895.8000,17301.6000,0.0000,0.0000,0.0000,
290,507.44,19706.59,-19706.59,1574.0000,65535.0000,19045.4000,17471.4000,0.0000,0.0000,0.0000,
291,507.96,19686.52,-19686.52,1570.8000,65535.0000,19242.0000,17671.2000,0.0000,0.0000,0.0000,
292,508.48,19666.50,-19666.50,1579.4000,65535.0000,19317.2000,17737.8000,0.0000,0.0000,0.0000,
293,509.00,19646.52,-19646.52,1546.6000,65535.0000,19547.6000,18001.0000,0.0000,0.0000,0.0000,
294,509.51,19626.60,-19626.60,1577.2000,65535.0000,19707.0000,18129.8000,0.0000,0.0000,0.0000,
295,510.03,19606.72,-19606.72,1566.6000,65535.0000,19782.2000,18215.6000,0.0000,0.0000,0.0000,
296,510.55,19586.89,-19586.89,1568.4000,65535.0000,20068.6000,18500.2000,0.0000,0.0000,0.0000,
297,511.06,19567.11,-19567.11,1583.0000,65535.0000,20403.0000,18820.0000,0.0000,0.0000,0.0000,
298,511.58,19547.38,-19547.38,1585.6000,65535.0000,20523.2000,18937.6000,0.0000,0.0000,0.0000,
299,512.09,19527.69,-19527.69,1561.4000,65535.0000,20766.0000,19204.6000,0.0000,0.0000,0.0000,
300,512.61,19508.05,-19508.05,1581.0000,65535.0000,21099.2000,19518.2000,0.0000,0.0000,0.0000,
301,513.12,19488.46,-19488.46,1552.6000,65535.0000,21400.4000,19847.8000,0.0000,0.0000,0.0000,
302,513.64,19468.92,-19468.92,1580.2000,65535.0000,21525.2000,19945.0000,0.0000,0.0000,0.0000,
303,514.15,19449.42,-19449.42,1550.4000,65535.0000,21609.0000,20058.6000,0.0000,0.0000,0.0000,
304,514.67,19429.97,-19429.97,1550.2000,65535.0000,21871.6000,20321.4000,0.0000,0.0000,0.0000,
305,515.18,19410.56,-19410.56,1579.8000,65535.0000,22217.8000,20638.0000,0.0000,0.0000,0.0000,
306,515.70,19391.21,-19391.21,1587.4000,65535.0000,22334.4000,20747.0000,0.0000,0.0000,0.0000,
307,516.21,19371.90,-19371.90,1578.8000,65535.0000,22567.0000,20988.2000,0.0000,0.0000,0.0000,
308,516.73,19352.63,-19352.63,1572.4000,65535.0000,22847.2000,21274.8000,0.0000,0.0000,0.0000,
309,517.24,19333.41,-19333.41,1583.0000,65535.0000,23059.6000,21476.6000,0.0000,0.0000,0.0000,
310,517.75,19314.24,-19314.24,1565.2000,65535.0000,23377.6000,21812.4000,0.0000,0.0000,0.0000,
311,518.27,19295.11,-19295.11,1585.2000,65535.0000,23544.2000,21959.0000,0.0000,0.0000,0.0000,
312,518.78,19276.03,-19276.03,1581.4000,65535.0000,23735.0000,22153.6000,0.0000,0.0000,0.0000,
313,519.29,19257.00,-19257.00,1578.0000,65535.0000,23903.4000,22325.4000,0.0000,0.0000,0.0000,
314,519.80,19238.01,-19238.01,1582.8000,65535.0000,24112.6000,22529.8000,0.0000,0.0000,0.0000,
315,520.32,19219.06,-19219.06,1584.6000,65535.0000,24345.6000,22761.0000,0.0000,0.0000,0.0000,
316,520.83,19200.16,-19200.16,1577.8000,65535.0000,24576.8000,22999.0000,0.0000,0.0000,0.0000,
317,521.34,19181.30,-19181.30,1552.0000,65535.0000,24724.6000,23172.6000,0.0000,0.0000,0.0000,
318,521.85,19162.49,-19162.49,1552.8000,65535.0000,24972.4000,23419.6000,0.0000,0.0000,0.0000,
319,522.36,19143.73,-19143.73,1580.8000,65535.0000,25338.2000,23757.4000,0.0000,0.0000,0.0000,
320,522.88,19125.00,-19125.00,1571.8000,65535.0000,25312.4000,23740.6000,0.0000,0.0000,0.0000,
321,523.39,19106.33,-19106.33,1591.8000,65535.0000,25572.8000,23981.0000,0.0000,0.0000,0.0000,
322,523.90,19087.69,-19087.69,1592.2000,65535.0000,25772.6000,24180.4000,0.0000,0.0000,0.0000,
323,524.41,19069.10,-19069.10,1595.8000,65535.0000,26234.4000,24638.6000,0.0000,0.0000,0.0000,
324,524.92,19050.55,-19050.55,1574.4000,65535.0000,26476.4000,24902.0000,0.0000,0.0000,0.0000,
325,525.43,19032.05,-19032.05,1584.0000,65535.0000,26739.2000,25155.2000,0.0000,0.0000,0.0000,
326,525.94,19013.59,-19013.59,1589.2000,65535.0000,27088.4000,25499.2000,0.0000,0.0000,0.0000,
327,526.45,18995.17,-18995.17,1580.4000,65535.0000,27207.2000,25626.8000,0.0000,0.0000,0.0000,
328,526.96,18976.80,-18976.80,1599.6000,65535.0000,27203.8000,25604.2000,0.0000,0.0000,0.0000,
329,527.47,18958.47,-18958.47,1578.8000,65535.0000,27400.0000,25821.2000,0.0000,0.0000,0.0000,
330,527.98,18940.18,-18940.18,1574.0000,65535.0000,27805.2000,26231.2000,0.0000,0.0000,0.0000,
331,528.49,18921.94,-18921.94,1564.0000,65535.0000,27855.8000,26291.8000,0.0000,0.0000,0.0000,
332,529.00,18903.74,-18903.74,1565.8000,65535.0000,28224.2000,26658.4000,0.0000,0.0000,0.0000,
333,529.50,18885.58,-18885.58,1574.6000,65535.0000,28043.6000,26469.0000,0.0000,0.0000,0.0000,
334,530.01,18867.46,-18867.46,1573.8000,65535.0000,28168.4000,26594.6000,0.0000,0.0000,0.0000,
335,530.52,18849.38,-18849.38,1570.6000,65535.0000,28202.2000,26631.6000,0.0000,0.0000,0.0000,
336,531.03,18831.35,-18831.35,1551.4000,65535.0000,28393.0000,26841.6000,0.0000,0.0000,0.0000,
337,531.54,18813.36,-18813.36,1571.6000,65535.0000,28633.4000,27061.8000,0.0000,0.0000,0.0000,
338,532.04,18795.41,-18795.41,1579.4000,65535.0000,28246.2000,26666.8000,0.0000,0.0000,0.0000,
339,532.55,18777.50,-18777.50,1567.6000,65535.0000,28552.8000,26985.2000,0.0000,0.0000,0.0000,
340,533.06,18759.63,-18759.63,1574.0000,65535.0000,28871.4000,27297.4000,0.0000,0.0000,0.0000,
341,533.57,18741.80,-18741.80,1568.8000,65535.0000,28922.0000,27353.2000,0.0000,0.0000,0.0000,
342,534.07,18724.02,-18724.02,1588.4000,65535.0000,29350.8000,27762.4000,0.0000,0.0000,0.0000,
343,534.58,18706.28,-18706.28,1575.6000,65535.0000,29384.2000,27808.6000,0.0000,0.0000,0.0000,
344,535.09,18688.57,-18688.57,1553.8000,65535.0000,29328.6000,27774.8000,0.0000,0.0000,0.0000,
345,535.59,18670.91,-18670.91,1566.2000,65535.0000,29326.2000,27760.0000,0.0000,0.0000,0.0000,
346,536.10,18653.29,-18653.29,1586.6000,65535.0000,29458.0000,27871.4000,0.0000,0.0000,0.0000,
347,536.60,18635.71,-18635.71,1592.0000,65535.0000,29413.4000,27821.4000,0.0000,0.0000,0.0000,
348,537.11,18618.17,-18618.17,1572.4000,65535.0000,29643.2000,28070.8000,0.0000,0.0000,0.0000,
349,537.62,18600.67,-18600.67,1559.8000,65535.0000,30000.8000,28441.0000,0.0000,0.0000,0.0000,
350,538.12,18583.21,-18583.21,1572.8000,65535.0000,30098.6000,28525.8000,0.0000,0.0000,0.0000,
351,538.63,18565.78,-18565.78,1571.4000,65535.0000,29995.6000,28424.2000,0.0000,0.0000,0.0000,
352,539.13,18548.40,-18548.40,1605.2000,65535.0000,30051.6000,28446.4000,0.0000,0.0000,0.0000,
353,539.63,18531.06,-18531.06,1550.6000,65535.0000,30444.0000,28893.4000,0.0000,0.0000,0.0000,
354,540.14,18513.76,-18513.76,1556.6000,65535.0000,30690.2000,29133.6000,0.0000,0.0000,0.0000,
355,540.64,18496.50,-18496.50,1561.2000,65535.0000,30742.0000,29180.8000,0.0000,0.0000,0.0000,
356,541.15,18479.28,-18479.28,1582.8000,65535.0000,30909.2000,29326.4000,0.0000,0.0000,0.0000,
357,541.65,18462.09,-18462.09,1537.4000,65535.0000,31017.6000,29480.2000,0.0000,0.0000,0.0000,
358,542.15,18444.95,-18444.95,1573.4000,65535.0000,31132.0000,29558.6000,0.0000,0.0000,0.0000,
359,542.66,18427.84,-18427.84,1562.0000,65535.0000,31347.8000,29785.8000,0.0000,0.0000,0.0000,
360,543.16,18410.77,-18410.77,1574.4000,65535.0000,31335.8000,29761.4000,0.0000,0.0000,0.0000,
361,543.66,18393.74,-18393.74,1581.0000,65535.0000,31627.0000,30046.0000,0.0000,0.0000,0.0000,
362,544.17,18376.75,-18376.75,1601.6000,65535.0000,31775.2000,30173.6000,0.0000,0.0000,0.0000,
363,544.67,18359.80,-18359.80,1615.4000,65535.0000,31893.6000,30278.2000,0.0000,0.0000,0.0000,
364,545.17,18342.89,-18342.89,1572.8000,65535.0000,32171.4000,30598.6000,0.0000,0.0000,0.0000,
365,545.67,18326.01,-18326.01,1564.2000,65535.0000,32153.8000,30589.6000,0.0000,0.0000,0.0000,
366,546.17,18309.17,-18309.17,1587.4000,65535.0000,32534.6000,30947.2000,0.0000,0.0000,0.0000,
367,546.68,18292.37,-18292.37,1576.6000,65535.0000,32629.6000,31053.0000,0.0000,0.0000,0.0000,
368,547.18,18275.61,-18275.61,1597.0000,65535.0000,32518.0000,30921.0000,0.0000,0.0000,0.0000,
369,547.68,18258.89,-18258.89,1592.2000,65535.0000,32720.0000,31127.8000,0.0000,0.0000,0.0000,
370,548.18,18242.20,-18242.20,1585.0000,65535.0000,32836.6000,31251.6000,0.0000,0.0000,0.0000,
371,548.68,18225.55,-18225.55,1590.8000,65535.0000,32829.4000,31238.6000,0.0000,0.0000,0.0000,
372,549.18,18208.94,-18208.94,1594.2000,65535.0000,33231.8000,31637.6000,0.0000,0.0000,0.0000,
373,549.68,18192.37,-18192.37,1593.4000,65535.0000,33291.0000,31697.6000,0.0000,0.0000,0.0000,
374,550.18,18175.83,-18175.83,1571.4000,65535.0000,33576.0000,32004.6000,0.0000,0.0000,0.0000,
375,550.68,18159.33,-18159.33,1584.0000,65535.0000,33834.6000,32250.6000,0.0000,0.0000,0.0000,
376,551.18,18142.86,-18142.86,1573.0000,65535.0000,33836.2000,32263.2000,0.0000,0.0000,0.0000,
377,551.68,18126.43,-18126.43,1567.2000,65535.0000,34146.8000,32579.6000,0.0000,0.0000,0.0000,
378,552.18,18110.04,-18110.04,1536.0000,65535.0000,34332.4000,32796.4000,0.0000,0.0000,0.0000,
379,552.68,18093.69,-18093.69,1569.6000,65535.0000,34501.2000,32931.6000,0.0000,0.0000,0.0000,
380,553.18,18077.37,-18077.37,1583.0000,65535.0000,34664.8000,33081.8000,0.0000,0.0000,0.0000,
381,553.68,18061.09,-18061.09,1573.6000,65535.0000,34828.0000,33254.4000,0.0000,0.0000,0.0000,
382,554.18,18044.84,-18044.84,1572.0000,65535.0000,34867.8000,33295.8000,0.0000,0.0000,0.0000,
383,554.67,18028.63,-18028.63,1584.2000,65535.0000,35016.0000,33431.8000,0.0000,0.0000,0.0000,
384,555.17,18012.46,-18012.46,1562.6000,65535.0000,35522.4000,33959.8000,0.0000,0.0000,0.0000,
385,555.67,17996.32,-17996.32,1570.0000,65535.0000,35508.4000,33938.4000,0.0000,0.0000,0.0000,
386,556.17,17980.22,-17980.22,1589.0000,65535.0000,35908.2000,34319.2000,0.0000,0.0000,0.0000,
387,556.66,17964.15,-17964.15,1581.8000,65535.0000,36233.4000,34651.6000,0.0000,0.0000,0.0000,
388,557.16,17948.12,-17948.12,1577.0000,65535.0000,36553.8000,34976.8000,0.0000,0.0000,0.0000,
389,557.66,17932.12,-17932.12,1550.8000,65535.0000,36750.8000,35200.0000,0.0000,0.0000,0.0000,
390,558.16,17916.16,-17916.16,1582.2000,65535.0000,36969.2000,35387.0000,0.0000,0.0000,0.0000,
391,558.65,17900.23,-17900.23,1557.2000,65535.0000,37064.0000,35506.8000,0.0000,0.0000,0.0000,
392,559.15,17884.34,-17884.34,1593.8000,65535.0000,37479.8000,35886.0000,0.0000,0.0000,0.0000,
393,559.64,17868.48,-17868.48,1579.8000,65535.0000,37688.0000,36108.2000,0.0000,0.0000,0.0000,
394,560.14,17852.66,-17852.66,1568.8000,65535.0000,37934.6000,36365.8000,0.0000,0.0000,0.0000,
395,560.64,17836.87,-17836.87,1556.2000,65535.0000,38162.6000,36606.4000,0.0000,0.0000,0.0000,
396,561.13,17821.12,-17821.12,1576.6000,65535.0000,38630.6000,37054.0000,0.0000,0.0000,0.0000,
397,561.63,17805.40,-17805.40,1554.4000,65535.0000,38626.4000,37072.0000,0.0000,0.0000,0.0000,
398,562.12,17789.72,-17789.72,1558.0000,65535.0000,39094.0000,37536.0000,0.0000,0.0000,0.0000,
399,562.62,17774.07,-17774.07,1584.2000,65535.0000,39306.6000,37722.4000,0.0000,0.0000,0.0000,
400,563.11,17758.45,-17758.45,1583.4000,65535.0000,40049.8000,38466.4000,0.0000,0.0000,0.0000,
401,563.61,17742.87,-17742.87,1583.8000,65535.0000,40258.4000,38674.6000,0.0000,0.0000,0.0000,
402,564.10,17727.32,-17727.32,1575.0000,65535.0000,40475.6000,38900.6000,0.0000,0.0000,0.0000,
403,564.60,17711.81,-17711.81,1565.8000,65535.0000,40412.8000,38847.0000,0.0000,0.0000,0.0000,
404,565.09,17696.33,-17696.33,1595.0000,65535.0000,40646.4000,39051.4000,0.0000,0.0000,0.0000,
405,565.58,17680.88,-17680.88,1555.6000,65535.0000,40837.6000,39282.0000,0.0000,0.0000,0.0000,
406,566.08,17665.47,-17665.47,1565.4000,65535.0000,40778.8000,39213.4000,0.0000,0.0000,0.0000,
407,566.57,17650.09,-17650.09,1562.2000,65535.0000,41353.8000,39791.6000,0.0000,0.0000,0.0000,
408,567.06,17634.74,-17634.74,1533.4000,65535.0000,41354.0000,39820.6000,0.0000,0.0000,0.0000,
409,567.56,17619.42,-17619.42,1580.8000,65535.0000,41272.0000,39691.2000,0.0000,0.0000,0.0000,
410,568.05,17604.14,-17604.14,1591.4000,65535.0000,41629.8000,40038.4000,0.0000,0.0000,0.0000,
411,568.54,17588.90,-17588.90,1549.8000,65535.0000,41713.6000,40163.8000,0.0000,0.0000,0.0000,
412,569.03,17573.68,-17573.68,1590.6000,65535.0000,41886.0000,40295.4000,0.0000,0.0000,0.0000,
413,569.52,17558.50,-17558.50,1567.8000,65535.0000,41948.8000,40381.0000,0.0000,0.0000,0.0000,
414,570.02,17543.35,-17543.35,1562.0000,65535.0000,42107.4000,40545.4000,0.0000,0.0000,0.0000,
415,570.51,17528.23,-17528.23,1581.8000,65535.0000,42168.2000,40586.4000,0.0000,0.0000,0.0000,
416,571.00,17513.15,-17513.15,1579.6000,65535.0000,42557.4000,40977.8000,0.0000,0.0000,0.0000,
417,571.49,17498.09,-17498.09,1559.6000,65535.0000,42794.4000,41234.8000,0.0000,0.0000,0.0000,
418,571.98,17483.07,-17483.07,1571.0000,65535.0000,42832.6000,41261.6000,0.0000,0.0000,0.0000,
419,572.47,17468.08,-17468.08,1579.4000,65535.0000,43136.2000,41556.8000,0.0000,0.0000,0.0000,
420,572.96,17453.13,-17453.13,1563.2000,65535.0000,43310.4000,41747.2000,0.0000,0.0000,0.0000,
421,573.45,17438.20,-17438.20,1548.0000,65535.0000,42993.0000,41445.0000,0.0000,0.0000,0.0000,
422,573.94,17423.31,-17423.31,1562.8000,65535.0000,43677.0000,42114.2000,0.0000,0.0000,0.0000,
423,574.43,17408.45,-17408.45,1597.0000,65535.0000,43856.4000,42259.4000,0.0000,0.0000,0.0000,
424,574.92,17393.62,-17393.62,1575.6000,65535.0000,43413.6000,41838.0000,0.0000,0.0000,0.0000,
425,575.41,17378.82,-17378.82,1575.0000,65535.0000,43628.8000,42053.8000,0.0000,0.0000,0.0000,
426,575.90,17364.06,-17364.06,1598.4000,65535.0000,43911.0000,42312.6000,0.0000,0.0000,0.0000,
427,576.39,17349.32,-17349.32,1567.8000,65535.0000,44026.8000,42459.0000,0.0000,0.0000,0.0000,
428,576.88,17334.62,-17334.62,1554.4000,65535.0000,44221.6000,42667.2000,0.0000,0.0000,0.0000,
429,577.37,17319.95,-17319.95,1591.8000,65535.0000,43952.0000,42360.2000,0.0000,0.0000,0.0000,
430,577.86,17305.31,-17305.31,1574.4000,65535.0000,43891.8000,42317.4000,0.0000,0.0000,0.0000,
431,578.35,17290.70,-17290.70,1569.8000,65535.0000,44002.4000,42432.6000,0.0000,0.0000,0.0000,
432,578.83,17276.12,-17276.12,1558.6000,65535.0000,44267.6000,42709.0000,0.0000,0.0000,0.0000,
433,579.32,17261.57,-17261.57,1580.8000,65535.0000,44321.0000,42740.2000,0.0000,0.0000,0.0000,
434,579.81,17247.05,-17247.05,1543.2000,65535.0000,44464.8000,42921.6000,0.0000,0.0000,0.0000,
435,580.30,17232.56,-17232.56,1563.2000,65535.0000,44523.6000,42960.4000,0.0000,0.0000,0.0000,
436,580.78,17218.10,-17218.10,1567.6000,65535.0000,44738.8000,43171.2000,0.0000,0.0000,0.0000,
437,581.27,17203.68,-17203.68,1569.2000,65535.0000,44841.4000,43272.2000,0.0000,0.0000,0.0000,
438,581.76,17189.28,-17189.28,1569.0000,65535.0000,44966.8000,43397.8000,0.0000,0.0000,0.0000,
439,582.24,17174.92,-17174.92,1585.8000,65535.0000,45049.6000,43463.8000,0.0000,0.0000,0.0000,
440,582.73,17160.58,-17160.58,1559.0000,65535.0000,45146.6000,43587.6000,0.0000,0.0000,0.0000,
441,583.22,17146.27,-17146.27,1578.2000,65535.0000,45325.0000,43746.8000,0.0000,0.0000,0.0000,
442,583.70,17132.00,-17132.00,1553.8000,65535.0000,44953.2000,43399.4000,0.0000,0.0000,0.0000,
443,584.19,17117.75,-17117.75,1548.6000,65535.0000,44941.8000,43393.2000,0.0000,0.0000,0.0000,
444,584.67,17103.54,-17103.54,1575.2000,65535.0000,45239.2000,43664.0000,0.0000,0.0000,0.0000,
445,585.16,17089.35,-17089.35,1593.6000,65535.0000,45353.0000,43759.4000,0.0000,0.0000,0.0000,
446,585.64,17075.19,-17075.19,1591.0000,65535.0000,45543.6000,43952.6000,0.0000,0.0000,0.0000,
447,586.13,17061.07,-17061.07,1578.0000,65535.0000,45517.4000,43939.4000,0.0000,0.0000,0.0000,
448,586.61,17046.97,-17046.97,1589.8000,65535.0000,45557.8000,43968.0000,0.0000,0.0000,0.0000,
449,587.10,17032.90,-17032.90,1591.4000,65535.0000,45584.4000,43993.0000,0.0000,0.0000,0.0000,
450,587.58,17018.86,-17018.86,1586.8000,65535.0000,45327.4000,43740.6000,0.0000,0.0000,0.0000,
451,588.07,17004.85,-17004.85,1551.6000,65535.0000,45473.6000,43922.0000,0.0000,0.0000,0.0000,
452,588.55,16990.87,-16990.87,1559.8000,65535.0000,45652.0000,44092.2000,0.0000,0.0000,0.0000,
453,589.04,16976.92,-16976.92,1573.4000,65535.0000,45989.0000,44415.6000,0.0000,0.0000,0.0000,
454,589.52,16962.99,-16962.99,1572.6000,65535.0000,46591.8000,45019.2000,0.0000,0.0000,0.0000,
455,590.00,16949.10,-16949.10,1590.2000,65535.0000,46255.8000,44665.6000,0.0000,0.0000,0.0000,
456,590.48,16935.23,-16935.23,1566.2000,65535.0000,46440.0000,44873.8000,0.0000,0.0000,0.0000,
457,590.97,16921.40,-16921.40,1581.6000,65535.0000,46448.0000,44866.4000,0.0000,0.0000,0.0000,
458,591.45,16907.59,-16907.59,1565.4000,65535.0000,46486.4000,44921.0000,0.0000,0.0000,0.0000,
459,591.93,16893.81,-16893.81,1552.0000,65535.0000,46345.6000,44793.6000,0.0000,0.0000,0.0000,
460,592.42,16880.06,-16880.06,1539.4000,65535.0000,46737.0000,45197.6000,0.0000,0.0000,0.0000,
461,592.90,16866.33,-16866.33,1574.4000,65535.0000,47008.4000,45434.0000,0.0000,0.0000,0.0000,
462,593.38,16852.64,-16852.64,1571.8000,65535.0000,47156.2000,45584.4000,0.0000,0.0000,0.0000,
463,593.86,16838.97,-16838.97,1593.6000,65535.0000,47478.8000,45885.2000,0.0000,0.0000,0.0000,
464,594.34,16825.33,-16825.33,1568.6000,65535.0000,47903.0000,46334.4000,0.0000,0.0000,0.0000,
465,594.82,16811.72,-16811.72,1562.4000,65535.0000,47684.0000,46121.6000,0.0000,0.0000,0.0000,
466,595.30,16798.14,-16798.14,1543.0000,65535.0000,47959.2000,46416.2000,0.0000,0.0000,0.0000,
467,595.78,16784.58,-16784.58,1551.0000,65535.0000,48082.4000,46531.4000,0.0000,0.0000,0.0000,
468,596.27,16771.05,-16771.05,1592.8000,65535.0000,48143.0000,46550.2000,0.0000,0.0000,0.0000,
469,596.75,16757.55,-16757.55,1582.0000,65535.0000,48488.8000,46906.8000,0.0000,0.0000,0.0000,
470,597.23,16744.08,-16744.08,1561.4000,65535.0000,48343.2000,46781.8000,0.0000,0.0000,0.0000,
471,597.71,16730.64,-16730.64,1571.0000,65535.0000,47917.0000,46346.0000,0.0000,0.0000,0.0000,
472,598.19,16717.22,-16717.22,1553.2000,65535.0000,48402.0000,46848.8000,0.0000,0.0000,0.0000,
473,598.67,16703.83,-16703.83,1578.4000,65535.0000,48593.8000,47015.4000,0.0000,0.0000,0.0000,
474,599.14,16690.47,-16690.47,1571.0000,65535.0000,48968.6000,47397.6000,0.0000,0.0000,0.0000,
475,599.62,16677.13,-16677.13,1571.4000,65535.0000,48549.4000,46978.0000,0.0000,0.0000,0.0000,
476,600.10,16663.82,-16663.82,1554.0000,65535.0000,49006.8000,47452.8000,0.0000,0.0000,0.0000,
477,600.58,16650.54,-16650.54,1570.0000,65535.0000,49404.0000,47834.0000,0.0000,0.0000,0.0000,
478,601.06,16637.29,-16637.29,1567.6000,65535.0000,49224.4000,47656.8000,0.0000,0.0000,0.0000,
479,601.54,16624.06,-16624.06,1575.8000,65535.0000,49162.2000,47586.4000,0.0000,0.0000,0.0000,
480,602.02,16610.86,-16610.86,1568.6000,65535.0000,49466.8000,47898.2000,0.0000,0.0000,0.0000,
481,602.49,16597.68,-16597.68,1565.0000,65535.0000,49798.2000,48233.2000,0.0000,0.0000,0.0000,
482,602.97,16584.54,-16584.54,1565.2000,65535.0000,50044.8000,48479.6000,0.0000,0.0000,0.0000,
483,603.45,16571.42,-16571.42,1559.8000,65535.0000,50171.2000,48611.4000,0.0000,0.0000,0.0000,
484,603.93,16558.32,-16558.32,1575.8000,65535.0000,50122.8000,48547.0000,0.0000,0.0000,0.0000,
485,604.40,16545.25,-16545.25,1562.8000,65535.0000,50438.2000,48875.4000,0.0000,0.0000,0.0000,
486,604.88,16532.21,-16532.21,1570.8000,65535.0000,50443.0000,48872.2000,0.0000,0.0000,0.0000,
487,605.36,16519.20,-16519.20,1564.4000,65535.0000,50803.2000,49238.8000,0.0000,0.0000,0.0000,
488,605.83,16506.21,-16506.21,1561.0000,65535.0000,51247.4000,49686.4000,0.0000,0.0000,0.0000,
489,606.31,16493.24,-16493.24,1584.6000,65535.0000,51198.2000,49613.6000,0.0000,0.0000,0.0000,
490,606.78,16480.31,-16480.31,1567.6000,65535.0000,51421.4000,49853.8000,0.0000,0.0000,0.0000,
491,607.26,16467.39,-16467.39,1586.6000,65535.0000,51073.0000,49486.4000,0.0000,0.0000,0.0000,
492,607.74,16454.51,-16454.51,1560.2000,65535.0000,51537.0000,49976.8000,0.0000,0.0000,0.0000,
493,608.21,16441.65,-16441.65,1561.4000,65535.0000,52088.4000,50527.0000,0.0000,0.0000,0.0000,
494,608.69,16428.82,-16428.82,1562.2000,65535.0000,52093.8000,50531.6000,0.0000,0.0000,0.0000,
495,609.16,16416.01,-16416.01,1550.8000,65535.0000,52013.0000,50462.2000,0.0000,0.0000,0.0000,
496,609.64,16403.22,-16403.22,1549.6000,65535.0000,52272.4000,50722.8000,0.0000,0.0000,0.0000,
497,610.11,16390.47,-16390.47,1571.0000,65535.0000,52254.4000,50683.4000,0.0000,0.0000,0.0000,
498,610.59,16377.73,-16377.73,1554.6000,65535.0000,52451.4000,50896.8000,0.0000,0.0000,0.0000,
499,611.06,16365.03,-16365.03,1584.8000,65535.0000,52642.6000,51057.8000,0.0000,0.0000,0.0000,
500,611.53,16352.35,-16352.35,1579.8000,65535.0000,52265.4000,50685.6000,0.0000,0.0000,0.0000,
501,612.01,16339.69,-16339.69,1603.0000,65535.0000,52541.6000,50938.6000,0.0000,0.0000,0.0000,
502,612.48,16327.06,-16327.06,1589.6000,65535.0000,52832.0000,51242.4000,0.0000,0.0000,0.0000,
503,612.95,16314.46,-16314.46,1581.4000,65535.0000,52869.8000,51288.4000,0.0000,0.0000,0.0000,
504,613.43,16301.87,-16301.87,1576.0000,65535.0000,53112.4000,51536.4000,0.0000,0.0000,0.0000,
505,613.90,16289.32,-16289.32,1561.8000,65535.0000,53011.6000,51449.8000,0.0000,0.0000,0.0000,
506,614.37,16276.79,-16276.79,1603.0000,65535.0000,53163.4000,51560.4000,0.0000,0.0000,0.0000,
507,614.84,16264.28,-16264.28,1579.2000,65535.0000,53176.8000,51597.6000,0.0000,0.0000,0.0000,
508,615.32,16251.80,-16251.80,1600.6000,65535.0000,53360.6000,51760.0000,0.0000,0.0000,0.0000,
509,615.79,16239.34,-16239.34,1604.0000,65535.0000,53664.8000,52060.8000,0.0000,0.0000,0.0000,
510,616.26,16226.91,-16226.91,1572.6000,65535.0000,53717.8000,52145.2000,0.0000,0.0000,0.0000,
511,616.73,16214.50,-16214.50,1567.2000,65535.0000,53758.2000,52191.0000,0.0000,0.0000,0.0000,
512,617.20,16202.12,-16202.12,1580.0000,65535.0000,53546.2000,51966.2000,0.0000,0.0000,0.0000,
513,617.67,16189.76,-16189.76,1547.6000,65535.0000,53807.4000,52259.8000,0.0000,0.0000,0.0000,
514,618.15,16177.43,-16177.43,1565.6000,65535.0000,53752.8000,52187.2000,0.0000,0.0000,0.0000,
515,618.62,16165.12,-16165.12,1565.0000,65535.0000,53966.4000,52401.4000,0.0000,0.0000,0.0000,
516,619.09,16152.83,-16152.83,1566.0000,65535.0000,54053.0000,52487.0000,0.0000,0.0000,0.0000,
517,619.56,16140.57,-16140.57,1586.6000,65535.0000,53998.6000,52412.0000,0.0000,0.0000,0.0000,
518,620.03,16128.33,-16128.33,1558.6000,65535.0000,54047.6000,52489.0000,0.0000,0.0000,0.0000,
519,620.50,16116.12,-16116.12,1583.8000,65535.0000,54116.2000,52532.4000,0.0000,0.0000,0.0000,
520,620.97,16103.93,-16103.93,1571.0000,65535.0000,54107.8000,52536.8000,0.0000,0.0000,0.0000,
521,621.44,16091.76,-16091.76,1569.8000,65535.0000,53717.4000,52147.6000,0.0000,0.0000,0.0000,
522,621.91,16079.62,-16079.62,1559.4000,65535.0000,53836.8000,52277.4000,0.0000,0.0000,0.0000,
523,622.37,16067.50,-16067.50,1543.8000,65535.0000,53992.4000,52448.6000,0.0000,0.0000,0.0000,
524,622.84,16055.41,-16055.41,1583.8000,65535.0000,54067.0000,52483.2000,0.0000,0.0000,0.0000,
525,623.31,16043.33,-16043.33,1575.2000,65535.0000,53742.6000,52167.4000,0.0000,0.0000,0.0000,
526,623.78,16031.29,-16031.29,1587.4000,65535.0000,53604.8000,52017.4000,0.0000,0.0000,0.0000,
527,624.25,16019.26,-16019.26,1591.2000,65535.0000,53353.0000,51761.8000,0.0000,0.0000,0.0000,
528,624.72,16007.26,-16007.26,1556.2000,65535.0000,53451.0000,51894.8000,0.0000,0.0000,0.0000,
529,625.18,15995.28,-15995.28,1570.6000,65535.0000,53402.8000,51832.2000,0.0000,0.0000,0.0000,
530,625.65,15983.33,-15983.33,1578.0000,65535.0000,53381.2000,51803.2000,0.0000,0.0000,0.0000,
531,626.12,15971.40,-15971.40,1577.0000,65535.0000,53620.8000,52043.8000,0.0000,0.0000,0.0000,
532,626.59,15959.49,-15959.49,1599.0000,65535.0000,53369.2000,51770.2000,0.0000,0.0000,0.0000,
533,627.05,15947.60,-15947.60,1566.2000,65535.0000,53296.8000,51730.6000,0.0000,0.0000,0.0000,
534,627.52,15935.74,-15935.74,1561.8000,65535.0000,53074.4000,51512.6000,0.0000,0.0000,0.0000,
535,627.99,15923.90,-15923.90,1579.8000,65535.0000,53538.0000,51958.2000,0.0000,0.0000,0.0000,
536,628.45,15912.09,-15912.09,1557.6000,65535.0000,53372.6000,51815.0000,0.0000,0.0000,0.0000,
537,628.92,15900.29,-15900.29,1540.8000,65535.0000,53410.0000,51869.2000,0.0000,0.0000,0.0000,
538,629.39,15888.52,-15888.52,1564.6000,65535.0000,53306.6000,51742.0000,0.0000,0.0000,0.0000,
539,629.85,15876.78,-15876.78,1566.2000,65535.0000,53353.6000,51787.4000,0.0000,0.0000,0.0000,
540,630.32,15865.05,-15865.05,1575.0000,65535.0000,53690.6000,52115.6000,0.0000,0.0000,0.0000,
541,630.78,15853.35,-15853.35,1600.0000,65535.0000,53499.2000,51899.2000,0.0000,0.0000,0.0000,
542,631.25,15841.67,-15841.67,1563.8000,65535.0000,53281.0000,51717.2000,0.0000,0.0000,0.0000,
543,631.71,15830.01,-15830.01,1585.0000,65535.0000,53467.8000,51882.8000,0.0000,0.0000,0.0000,
544,632.18,15818.37,-15818.37,1562.0000,65535.0000,53371.6000,51809.6000,0.0000,0.0000,0.0000,
545,632.64,15806.76,-15806.76,1552.2000,65535.0000,53145.6000,51593.4000,0.0000,0.0000,0.0000,
546,633.10,15795.17,-15795.17,1562.2000,65535.0000,53281.4000,51719.2000,0.0000,0.0000,0.0000,
547,633.57,15783.60,-15783.60,1551.2000,65535.0000,52902.6000,51351.4000,0.0000,0.0000,0.0000,
548,634.03,15772.06,-15772.06,1589.0000,65535.0000,53239.2000,51650.2000,0.0000,0.0000,0.0000,
549,634.50,15760.53,-15760.53,1559.4000,65535.0000,53319.4000,51760.0000,0.0000,0.0000,0.0000,
550,634.96,15749.03,-15749.03,1586.6000,65535.0000,53696.2000,52109.6000,0.0000,0.0000,0.0000,
551,635.42,15737.55,-15737.55,1569.2000,65535.0000,53432.6000,51863.4000,0.0000,0.0000,0.0000,
552,635.89,15726.09,-15726.09,1581.0000,65535.0000,52944.4000,51363.4000,0.0000,0.0000,0.0000,
553,636.35,15714.65,-15714.65,1566.0000,65535.0000,52872.6000,51306.6000,0.0000,0.0000,0.0000,
554,636.81,15703.24,-15703.24,1567.4000,65535.0000,52811.4000,51244.0000,0.0000,0.0000,0.0000,
555,637.27,15691.85,-15691.85,1587.2000,65535.0000,52868.0000,51280.8000,0.0000,0.0000,0.0000,
556,637.74,15680.47,-15680.47,1597.2000,65535.0000,52676.0000,51078.8000,0.0000,0.0000,0.0000,
557,638.20,15669.12,-15669.12,1572.8000,65535.0000,52926.4000,51353.6000,0.0000,0.0000,0.0000,
558,638.66,15657.80,-15657.80,1569.6000,65535.0000,52528.4000,50958.8000,0.0000,0.0000,0.0000,
559,639.12,15646.49,-15646.49,1584.4000,65535.0000,52795.0000,51210.6000,0.0000,0.0000,0.0000,
560,639.58,15635.20,-15635.20,1532.8000,65535.0000,52639.0000,51106.2000,0.0000,0.0000,0.0000,
561,640.04,15623.94,-15623.94,1558.6000,65535.0000,52659.6000,51101.0000,0.0000,0.0000,0.0000,
562,640.50,15612.70,-15612.70,1578.0000,65535.0000,52884.0000,51306.0000,0.0000,0.0000,0.0000,
563,640.97,15601.48,-15601.48,1566.0000,65535.0000,52650.0000,51084.0000,0.0000,0.0000,0.0000,
564,641.43,15590.28,-15590.28,1587.8000,65535.0000,53061.2000,51473.4000,0.0000,0.0000,0.0000,
565,641.89,15579.10,-15579.10,1572.6000,65535.0000,53057.6000,51485.0000,0.0000,0.0000,0.0000,
566,642.35,15567.94,-15567.94,1575.0000,65535.0000,52623.6000,51048.6000,0.0000,0.0000,0.0000,
567,642.81,15556.80,-15556.80,1549.8000,65535.0000,52215.0000,50665.2000,0.0000,0.0000,0.0000,
568,643.27,15545.69,-15545.69,1597.2000,65535.0000,52861.6000,51264.4000,0.0000,0.0000,0.0000,
569,643.72,15534.59,-15534.59,1563.6000,65535.0000,52847.6000,51284.0000,0.0000,0.0000,0.0000,
570,644.18,15523.52,-15523.52,1542.0000,65535.0000,52610.6000,51068.6000,0.0000,0.0000,0.0000,
571,644.64,15512.46,-15512.46,1564.8000,65535.0000,52679.0000,51114.2000,0.0000,0.0000,0.0000,
572,645.10,15501.43,-15501.43,1569.6000,65535.0000,52964.0000,51394.4000,0.0000,0.0000,0.0000,
573,645.56,15490.42,-15490.42,1564.2000,65535.0000,52457.2000,50893.0000,0.0000,0.0000,0.0000,
574,646.02,15479.43,-15479.43,1555.8000,65535.0000,52664.6000,51108.8000,0.0000,0.0000,0.0000,
575,646.48,15468.46,-15468.46,1583.8000,65535.0000,52446.8000,50863.0000,0.0000,0.0000,0.0000,
576,646.93,15457.51,-15457.51,1566.6000,65535.0000,52558.0000,50991.4000,0.0000,0.0000,0.0000,
577,647.39,15446.58,-15446.58,1550.0000,65535.0000,52952.4000,51402.4000,0.0000,0.0000,0.0000,
578,647.85,15435.67,-15435.67,1550.8000,65535.0000,52880.2000,51329.4000,0.0000,0.0000,0.0000,
579,648.31,15424.78,-15424.78,1570.2000,65535.0000,52569.4000,50999.2000,0.0000,0.0000,0.0000,
580,648.76,15413.91,-15413.91,1547.6000,65535.0000,52768.8000,51221.2000,0.0000,0.0000,0.0000,
581,649.22,15403.07,-15403.07,1557.0000,65535.0000,53091.4000,51534.4000,0.0000,0.0000,0.0000,
582,649.68,15392.24,-15392.24,1588.2000,65535.0000,53192.2000,51604.0000,0.0000,0.0000,0.0000,
583,650.13,15381.43,-15381.43,1551.2000,65535.0000,53314.8000,51763.6000,0.0000,0.0000,0.0000,
584,650.59,15370.64,-15370.64,1583.4000,65535.0000,53555.8000,51972.4000,0.0000,0.0000,0.0000,
585,651.05,15359.88,-15359.88,1566.8000,65535.0000,53516.4000,51949.6000,0.0000,0.0000,0.0000,
586,651.50,15349.13,-15349.13,1567.2000,65535.0000,53814.0000,52246.8000,0.0000,0.0000,0.0000,
587,651.96,15338.40,-15338.40,1578.8000,65535.0000,53981.0000,52402.2000,0.0000,0.0000,0.0000,
588,652.41,15327.69,-15327.69,1560.0000,65535.0000,54018.8000,52458.8000,0.0000,0.0000,0.0000,
589,652.87,15317.01,-15317.01,1550.0000,65535.0000,53428.8000,51878.8000,0.0000,0.0000,0.0000,
590,653.32,15306.34,-15306.34,1557.2000,65535.0000,53576.2000,52019.0000,0.0000,0.0000,0.0000,
591,653.78,15295.69,-15295.69,1553.2000,65535.0000,53402.6000,51849.4000,0.0000,0.0000,0.0000,
592,654.23,15285.06,-15285.06,1554.4000,65535.0000,53174.2000,51619.8000,0.0000,0.0000,0.0000,
593,654.69,15274.45,-15274.45,1564.2000,65535.0000,53735.6000,52171.4000,0.0000,0.0000,0.0000,
594,655.14,15263.86,-15263.86,1575.6000,65535.0000,53734.8000,52159.2000,0.0000,0.0000,0.0000,
595,655.60,15253.29,-15253.29,1573.2000,65535.0000,53872.4000,52299.2000,0.0000,0.0000,0.0000,
596,656.05,15242.74,-15242.74,1567.6000,65535.0000,53870.2000,52302.6000,0.0000,0.0000,0.0000,
597,656.50,15232.21,-15232.21,1560.4000,65535.0000,53863.6000,52303.2000,0.0000,0.0000,0.0000,
598,656.96,15221.70,-15221.70,1548.8000,65535.0000,53690.0000,52141.2000,0.0000,0.0000,0.0000,
599,657.41,15211.21,-15211.21,1554.8000,65535.0000,53479.2000,51924.4000,0.0000,0.0000,0.0000,
600,657.86,15200.74,-15200.74,1547.8000,65535.0000,53784.8000,52237.0000,0.0000,0.0000,0.0000,
601,658.32,15190.29,-15190.29,1576.4000,65535.0000,54143.8000,52567.4000,0.0000,0.0000,0.0000,
602,658.77,15179.85,-15179.85,1555.6000,65535.0000,54286.0000,52730.4000,0.0000,0.0000,0.0000,
603,659.22,15169.44,-15169.44,1553.0000,65535.0000,54262.6000,52709.6000,0.0000,0.0000,0.0000,
604,659.67,15159.04,-15159.04,1569.4000,65535.0000,54647.2000,53077.8000,0.0000,0.0000,0.0000,
605,660.12,15148.66,-15148.66,1568.2000,65535.0000,54676.4000,53108.2000,0.0000,0.0000,0.0000,
606,660.58,15138.31,-15138.31,1568.6000,65535.0000,54282.4000,52713.8000,0.0000,0.0000,0.0000,
607,661.03,15127.97,-15127.97,1565.4000,65535.0000,54660.4000,53095.0000,0.0000,0.0000,0.0000,
608,661.48,15117.65,-15117.65,1549.4000,65535.0000,54192.2000,52642.8000,0.0000,0.0000,0.0000,
609,661.93,15107.35,-15107.35,1550.8000,65535.0000,54070.4000,52519.6000,0.0000,0.0000,0.0000,
610,662.38,15097.07,-15097.07,1580.4000,65535.0000,54257.6000,52677.2000,0.0000,0.0000,0.0000,
611,662.83,15086.80,-15086.80,1551.6000,65535.0000,54252.8000,52701.2000,0.0000,0.0000,0.0000,
612,663.28,15076.56,-15076.56,1546.0000,65535.0000,54413.4000,52867.4000,0.0000,0.0000,0.0000,
613,663.73,15066.33,-15066.33,1553.4000,65535.0000,54477.2000,52923.8000,0.0000,0.0000,0.0000,
614,664.18,15056.12,-15056.12,1582.4000,65535.0000,54334.8000,52752.4000,0.0000,0.0000,0.0000,
615,664.63,15045.93,-15045.93,1559.6000,65535.0000,54579.8000,53020.2000,0.0000,0.0000,0.0000,
616,665.08,15035.76,-15035.76,1559.6000,65535.0000,54733.2000,53173.6000,0.0000,0.0000,0.0000,
617,665.53,15025.61,-15025.61,1561.6000,65535.0000,54612.2000,53050.6000,0.0000,0.0000,0.0000,
618,665.98,15015.48,-15015.48,1544.8000,65535.0000,54317.4000,52772.6000,0.0000,0.0000,0.0000,
619,666.43,15005.36,-15005.36,1563.8000,65535.0000,54615.0000,53051.2000,0.0000,0.0000,0.0000,
620,666.88,14995.27,-14995.27,1586.2000,65535.0000,54480.2000,52894.0000,0.0000,0.0000,0.0000,
621,667.33,14985.19,-14985.19,1569.4000,65535.0000,54926.0000,53356.6000,0.0000,0.0000,0.0000,
622,667.77,14975.13,-14975.13,1571.6000,65535.0000,54914.0000,53342.4000,0.0000,0.0000,0.0000,
623,668.22,14965.09,-14965.09,1568.0000,65535.0000,54735.8000,53167.8000,0.0000,0.0000,0.0000,
624,668.67,14955.06,-14955.06,1558.6000,65535.0000,54973.8000,53415.2000,0.0000,0.0000,0.0000,
625,669.12,14945.06,-14945.06,1581.2000,65535.0000,54948.6000,53367.4000,0.0000,0.0000,0.0000,
626,669.56,14935.07,-14935.07,1567.0000,65535.0000,55062.2000,53495.2000,0.0000,0.0000,0.0000,
627,670.01,14925.10,-14925.10,1586.2000,65535.0000,54829.0000,53242.8000,0.0000,0.0000,0.0000,
628,670.46,14915.15,-14915.15,1577.8000,65535.0000,54596.8000,53019.0000,0.0000,0.0000,0.0000,
629,670.91,14905.22,-14905.22,1579.8000,65535.0000,54598.6000,53018.8000,0.0000,0.0000,0.0000,
630,671.35,14895.30,-14895.30,1579.0000,65535.0000,54913.6000,53334.6000,0.0000,0.0000,0.0000,
631,671.80,14885.40,-14885.40,1584.6000,65535.0000,54957.4000,53372.8000,0.0000,0.0000,0.0000,
632,672.25,14875.52,-14875.52,1560.0000,65535.0000,54888.4000,53328.4000,0.0000,0.0000,0.0000,
633,672.69,14865.66,-14865.66,1573.8000,65535.0000,54741.4000,53167.6000,0.0000,0.0000,0.0000,
634,673.14,14855.82,-14855.82,1571.2000,65535.0000,54981.2000,53410.0000,0.0000,0.0000,0.0000,
635,673.58,14845.99,-14845.99,1572.4000,65535.0000,55301.4000,53729.0000,0.0000,0.0000,0.0000,
636,674.03,14836.18,-14836.18,1577.0000,65535.0000,55031.6000,53454.6000,0.0000,0.0000,0.0000,
637,674.47,14826.39,-14826.39,1592.4000,65535.0000,54505.8000,52913.4000,0.0000,0.0000,0.0000,
638,674.92,14816.61,-14816.61,1554.8000,65535.0000,54115.6000,52560.8000,0.0000,0.0000,0.0000,
639,675.36,14806.86,-14806.86,1555.8000,65535.0000,54298.4000,52742.6000,0.0000,0.0000,0.0000,
640,675.81,14797.12,-14797.12,1562.8000,65535.0000,54580.2000,53017.4000,0.0000,0.0000,0.0000,
641,676.25,14787.40,-14787.40,1588.6000,65535.0000,54289.0000,52700.4000,0.0000,0.0000,0.0000,
642,676.70,14777.69,-14777.69,1555.0000,65535.0000,54730.4000,53175.4000,0.0000,0.0000,0.0000,
643,677.14,14768.01,-14768.01,1596.2000,65535.0000,54945.4000,53349.2000,0.0000,0.0000,0.0000,
644,677.58,14758.34,-14758.34,1586.2000,65535.0000,54963.4000,53377.2000,0.0000,0.0000,0.0000,
645,678.03,14748.68,-14748.68,1567.4000,65535.0000,54797.4000,53230.0000,0.0000,0.0000,0.0000,
646,678.47,14739.05,-14739.05,1548.8000,65535.0000,54940.0000,53391.2000,0.0000,0.0000,0.0000,
647,678.91,14729.43,-14729.43,1572.8000,65535.0000,54475.4000,52902.6000,0.0000,0.0000,0.0000,
648,679.36,14719.83,-14719.83,1567.6000,65535.0000,54425.0000,52857.4000,0.0000,0.0000,0.0000,
649,679.80,14710.24,-14710.24,1561.6000,65535.0000,54500.8000,52939.2000,0.0000,0.0000,0.0000,
650,680.24,14700.68,-14700.68,1557.6000,65535.0000,54174.6000,52617.0000,0.0000,0.0000,0.0000,
651,680.68,14691.13,-14691.13,1556.0000,65535.0000,54131.4000,52575.4000,0.0000,0.0000,0.0000,
652,681.12,14681.59,-14681.59,1566.8000,65535.0000,54310.0000,52743.2000,0.0000,0.0000,0.0000,
653,681.57,14672.08,-14672.08,1565.0000,65535.0000,53900.6000,52335.6000,0.0000,0.0000,0.0000,
654,682.01,14662.58,-14662.58,1567.2000,65535.0000,53581.8000,52014.6000,0.0000,0.0000,0.0000,
655,682.45,14653.09,-14653.09,1566.4000,65535.0000,53389.8000,51823.4000,0.0000,0.0000,0.0000,
656,682.89,14643.63,-14643.63,1534.8000,65535.0000,53195.8000,51661.0000,0.0000,0.0000,0.0000,
657,683.33,14634.18,-14634.18,1563.4000,65535.0000,53135.2000,51571.8000,0.0000,0.0000,0.0000,
658,683.77,14624.75,-14624.75,1561.2000,65535.0000,53180.0000,51618.8000,0.0000,0.0000,0.0000,
659,684.21,14615.33,-14615.33,1551.6000,65535.0000,53168.0000,51616.4000,0.0000,0.0000,0.0000,
660,684.65,14605.93,-14605.93,1577.8000,65535.0000,52720.8000,51143.0000,0.0000,0.0000,0.0000,
661,685.09,14596.55,-14596.55,1596.0000,65535.0000,52804.4000,51208.4000,0.0000,0.0000,0.0000,
662,685.53,14587.18,-14587.18,1569.8000,65535.0000,53293.8000,51724.0000,0.0000,0.0000,0.0000,
663,685.97,14577.83,-14577.83,1569.8000,65535.0000,53107.8000,51538.0000,0.0000,0.0000,0.0000,
664,686.41,14568.50,-14568.50,1571.0000,65535.0000,52857.8000,51286.8000,0.0000,0.0000,0.0000,
665,686.85,14559.18,-14559.18,1562.4000,65535.0000,52670.2000,51107.8000,0.0000,0.0000,0.0000,
666,687.29,14549.88,-14549.88,1580.8000,65535.0000,52616.4000,51035.6000,0.0000,0.0000,0.0000,
667,687.73,14540.60,-14540.60,1559.0000,65535.0000,52106.8000,50547.8000,0.0000,0.0000,0.0000,
668,688.17,14531.33,-14531.33,1569.6000,65535.0000,52071.8000,50502.2000,0.0000,0.0000,0.0000,
669,688.61,14522.08,-14522.08,1563.4000,65535.0000,51785.4000,50222.0000,0.0000,0.0000,0.0000,
670,689.04,14512.84,-14512.84,1568.4000,65535.0000,51986.0000,50417.6000,0.0000,0.0000,0.0000,
671,689.48,14503.63,-14503.63,1578.4000,65535.0000,52257.6000,50679.2000,0.0000,0.0000,0.0000,
672,689.92,14494.42,-14494.42,1568.6000,65535.0000,52113.2000,50544.6000,0.0000,0.0000,0.0000,
673,690.36,14485.24,-14485.24,1569.6000,65535.0000,52288.8000,50719.2000,0.0000,0.0000,0.0000,
674,690.80,14476.06,-14476.06,1566.0000,65535.0000,51930.2000,50364.2000,0.0000,0.0000,0.0000,
675,691.23,14466.91,-14466.91,1552.6000,65535.0000,51291.6000,49739.0000,0.0000,0.0000,0.0000,
676,691.67,14457.77,-14457.77,1567.4000,65535.0000,51073.0000,49505.6000,0.0000,0.0000,0.0000,
677,692.11,14448.65,-14448.65,1568.4000,65535.0000,51312.6000,49744.2000,0.0000,0.0000,0.0000,
678,692.54,14439.54,-14439.54,1565.4000,65535.0000,51329.4000,49764.0000,0.0000,0.0000,0.0000,
679,692.98,14430.45,-14430.45,1566.4000,65535.0000,50912.2000,49345.8000,0.0000,0.0000,0.0000,
680,693.42,14421.37,-14421.37,1557.4000,65535.0000,50851.4000,49294.0000,0.0000,0.0000,0.0000,
681,693.85,14412.31,-14412.31,1559.2000,65535.0000,50665.2000,49106.0000,0.0000,0.0000,0.0000,
682,694.29,14403.27,-14403.27,1558.8000,65535.0000,50770.8000,49212.0000,0.0000,0.0000,0.0000,
683,694.72,14394.24,-14394.24,1564.8000,65535.0000,50769.4000,49204.6000,0.0000,0.0000,0.0000,
684,695.16,14385.23,-14385.23,1557.8000,65535.0000,50350.2000,48792.4000,0.0000,0.0000,0.0000,
685,695.59,14376.23,-14376.23,1531.8000,65535.0000,50460.0000,48928.2000,0.0000,0.0000,0.0000,
686,696.03,14367.25,-14367.25,1546.0000,65535.0000,49781.0000,48235.0000,0.0000,0.0000,0.0000,
687,696.46,14358.29,-14358.29,1572.2000,65535.0000,49716.4000,48144.2000,0.0000,0.0000,0.0000,
688,696.90,14349.34,-14349.34,1572.8000,65535.0000,49661.0000,48088.2000,0.0000,0.0000,0.0000,
689,697.33,14340.40,-14340.40,1593.8000,65535.0000,49748.6000,48154.8000,0.0000,0.0000,0.0000,
690,697.76,14331.48,-14331.48,1579.6000,65535.0000,49483.8000,47904.2000,0.0000,0.0000,0.0000,
691,698.20,14322.58,-14322.58,1548.8000,65535.0000,49467.2000,47918.4000,0.0000,0.0000,0.0000,
692,698.63,14313.69,-14313.69,1580.0000,65535.0000,49468.8000,47888.8000,0.0000,0.0000,0.0000,
693,699.07,14304.82,-14304.82,1565.4000,65535.0000,49630.2000,48064.8000,0.0000,0.0000,0.0000,
694,699.50,14295.96,-14295.96,1552.8000,65535.0000,49385.6000,47832.8000,0.0000,0.0000,0.0000,
695,699.93,14287.12,-14287.12,1547.0000,65535.0000,49205.0000,47658.0000,0.0000,0.0000,0.0000,
696,700.36,14278.29,-14278.29,1540.4000,65535.0000,48998.8000,47458.4000,0.0000,0.0000,0.0000,
697,700.80,14269.48,-14269.48,1528.0000,65535.0000,49282.2000,47754.2000,0.0000,0.0000,0.0000,
698,701.23,14260.68,-14260.68,1553.0000,65535.0000,48818.6000,47265.6000,0.0000,0.0000,0.0000,
699,701.66,14251.90,-14251.90,1577.6000,65535.0000,48998.6000,47421.0000,0.0000,0.0000,0.0000,
700,702.09,14243.13,-14243.13,1558.2000,65535.0000,48555.0000,46996.8000,0.0000,0.0000,0.0000,
701,702.52,14234.38,-14234.38,1567.4000,65535.0000,48417.0000,46849.6000,0.0000,0.0000,0.0000,
702,702.96,14225.64,-14225.64,1561.6000,65535.0000,48444.0000,46882.4000,0.0000,0.0000,0.0000,
703,703.39,14216.92,-14216.92,1573.8000,65535.0000,48634.2000,47060.4000,0.0000,0.0000,0.0000,
704,703.82,14208.21,-14208.21,1565.4000,65535.0000,48575.0000,47009.6000,0.0000,0.0000,0.0000,
705,704.25,14199.52,-14199.52,1580.4000,65535.0000,48273.2000,46692.8000,0.0000,0.0000,0.0000,
706,704.68,14190.84,-14190.84,1580.8000,65535.0000,48226.0000,46645.2000,0.0000,0.0000,0.0000,
707,705.11,14182.18,-14182.18,1559.4000,65535.0000,48280.2000,46720.8000,0.0000,0.0000,0.0000,
708,705.54,14173.53,-14173.53,1573.8000,65535.0000,48432.8000,46859.0000,0.0000,0.0000,0.0000,
709,705.97,14164.90,-14164.90,1575.8000,65535.0000,48187.4000,46611.6000,0.0000,0.0000,0.0000,
710,706.40,14156.28,-14156.28,1549.0000,65535.0000,48174.6000,46625.6000,0.0000,0.0000,0.0000,
711,706.83,14147.68,-14147.68,1548.4000,65535.0000,48381.6000,46833.2000,0.0000,0.0000,0.0000,
712,707.26,14139.09,-14139.09,1591.6000,65535.0000,48423.2000,46831.6000,0.0000,0.0000,0.0000,
713,707.69,14130.52,-14130.52,1571.8000,65535.0000,47987.4000,46415.6000,0.0000,0.0000,0.0000,
714,708.12,14121.96,-14121.96,1574.0000,65535.0000,48263.4000,46689.4000,0.0000,0.0000,0.0000,
715,708.55,14113.42,-14113.42,1547.6000,65535.0000,48423.2000,46875.6000,0.0000,0.0000,0.0000,
716,708.97,14104.88,-14104.88,1554.0000,65535.0000,47966.0000,46412.0000,0.0000,0.0000,0.0000,
717,709.40,14096.37,-14096.37,1540.8000,65535.0000,47761.2000,46220.4000,0.0000,0.0000,0.0000,
718,709.83,14087.87,-14087.87,1558.6000,65535.0000,47858.6000,46300.0000,0.0000,0.0000,0.0000,
719,710.26,14079.38,-14079.38,1552.6000,65535.0000,47688.2000,46135.6000,0.0000,0.0000,0.0000,
720,710.69,14070.91,-14070.91,1540.6000,65535.0000,47525.6000,45985.0000,0.0000,0.0000,0.0000,
721,711.11,14062.45,-14062.45,1579.2000,65535.0000,47128.8000,45549.6000,0.0000,0.0000,0.0000,
722,711.54,14054.01,-14054.01,1566.8000,65535.0000,47123.6000,45556.8000,0.0000,0.0000,0.0000,
723,711.97,14045.58,-14045.58,1594.0000,65535.0000,46980.6000,45386.6000,0.0000,0.0000,0.0000,
724,712.39,14037.16,-14037.16,1546.4000,65535.0000,47385.0000,45838.6000,0.0000,0.0000,0.0000,
725,712.82,14028.76,-14028.76,1570.0000,65535.0000,47254.4000,45684.4000,0.0000,0.0000,0.0000,
726,713.25,14020.38,-14020.38,1557.2000,65535.0000,47229.6000,45672.4000,0.0000,0.0000,0.0000,
727,713.67,14012.00,-14012.00,1569.0000,65535.0000,46935.0000,45366.0000,0.0000,0.0000,0.0000,
728,714.10,14003.64,-14003.64,1566.0000,65535.0000,47373.4000,45807.4000,0.0000,0.0000,0.0000,
729,714.53,13995.30,-13995.30,1554.0000,65535.0000,47211.2000,45657.2000,0.0000,0.0000,0.0000,
730,714.95,13986.97,-13986.97,1572.8000,65535.0000,47142.6000,45569.8000,0.0000,0.0000,0.0000,
731,715.38,13978.65,-13978.65,1569.8000,65535.0000,47304.0000,45734.2000,0.0000,0.0000,0.0000,
732,715.80,13970.35,-13970.35,1568.2000,65535.0000,46652.8000,45084.6000,0.0000,0.0000,0.0000,
733,716.23,13962.06,-13962.06,1545.8000,65535.0000,46783.8000,45238.0000,0.0000,0.0000,0.0000,
734,716.65,13953.79,-13953.79,1572.2000,65535.0000,46772.4000,45200.2000,0.0000,0.0000,0.0000,
735,717.08,13945.53,-13945.53,1578.0000,65535.0000,46814.4000,45236.4000,0.0000,0.0000,0.0000,
736,717.50,13937.28,-13937.28,1562.2000,65535.0000,46678.4000,45116.2000,0.0000,0.0000,0.0000,
737,717.92,13929.05,-13929.05,1555.0000,65535.0000,46493.0000,44938.0000,0.0000,0.0000,0.0000,
738,718.35,13920.83,-13920.83,1582.0000,65535.0000,46128.8000,44546.8000,0.0000,0.0000,0.0000,
739,718.77,13912.63,-13912.63,1574.8000,65535.0000,46641.6000,45066.8000,0.0000,0.0000,0.0000,
740,719.20,13904.43,-13904.43,1574.0000,65535.0000,46433.2000,44859.2000,0.0000,0.0000,0.0000,
741,719.62,13896.26,-13896.26,1558.0000,65535.0000,46218.0000,44660.0000,0.0000,0.0000,0.0000,
742,720.04,13888.09,-13888.09,1567.8000,65535.0000,46437.4000,44869.6000,0.0000,0.0000,0.0000,
743,720.46,13879.94,-13879.94,1570.6000,65535.0000,45879.0000,44308.4000,0.0000,0.0000,0.0000,
744,720.89,13871.81,-13871.81,1579.6000,65535.0000,46203.0000,44623.4000,0.0000,0.0000,0.0000,
745,721.31,13863.68,-13863.68,1552.6000,65535.0000,46403.2000,44850.6000,0.0000,0.0000,0.0000,
746,721.73,13855.57,-13855.57,1560.2000,65535.0000,46749.6000,45189.4000,0.0000,0.0000,0.0000,
747,722.15,13847.48,-13847.48,1570.8000,65535.0000,46686.8000,45116.0000,0.0000,0.0000,0.0000,
748,722.57,13839.39,-13839.39,1590.6000,65535.0000,46840.0000,45249.4000,0.0000,0.0000,0.0000,
749,723.00,13831.33,-13831.33,1585.2000,65535.0000,46518.8000,44933.6000,0.0000,0.0000,0.0000,
750,723.42,13823.27,-13823.27,1582.2000,65535.0000,46996.2000,45414.0000,0.0000,0.0000,0.0000,
751,723.84,13815.23,-13815.23,1576.8000,65535.0000,46936.6000,45359.8000,0.0000,0.0000,0.0000,
752,724.26,13807.20,-13807.20,1568.6000,65535.0000,47090.6000,45522.0000,0.0000,0.0000,0.0000,
753,724.68,13799.18,-13799.18,1571.8000,65535.0000,46850.4000,45278.6000,0.0000,0.0000,0.0000,
754,725.10,13791.18,-13791.18,1583.6000,65535.0000,46647.4000,45063.8000,0.0000,0.0000,0.0000,
755,725.52,13783.19,-13783.19,1569.8000,65535.0000,46573.8000,45004.0000,0.0000,0.0000,0.0000,
756,725.94,13775.22,-13775.22,1552.0000,65535.0000,46621.2000,45069.2000,0.0000,0.0000,0.0000,
757,726.36,13767.26,-13767.26,1565.4000,65535.0000,46519.4000,44954.0000,0.0000,0.0000,0.0000,
758,726.78,13759.31,-13759.31,1562.8000,65535.0000,46506.2000,44943.4000,0.0000,0.0000,0.0000,
759,727.20,13751.37,-13751.37,1543.4000,65535.0000,46023.0000,44479.6000,0.0000,0.0000,0.0000,
760,727.62,13743.45,-13743.45,1553.0000,65535.0000,45803.4000,44250.4000,0.0000,0.0000,0.0000,
761,728.04,13735.54,-13735.54,1564.0000,65535.0000,45949.8000,44385.8000,0.0000,0.0000,0.0000,
762,728.46,13727.64,-13727.64,1574.2000,65535.0000,46007.6000,44433.4000,0.0000,0.0000,0.0000,
763,728.88,13719.76,-13719.76,1556.8000,65535.0000,46187.8000,44631.0000,0.0000,0.0000,0.0000,
764,729.29,13711.89,-13711.89,1579.2000,65535.0000,46608.6000,45029.4000,0.0000,0.0000,0.0000,
765,729.71,13704.03,-13704.03,1537.8000,65535.0000,46789.4000,45251.6000,0.0000,0.0000,0.0000,
766,730.13,13696.19,-13696.19,1542.8000,65535.0000,46711.4000,45168.6000,0.0000,0.0000,0.0000,
767,730.55,13688.35,-13688.35,1588.4000,65535.0000,46635.0000,45046.6000,0.0000,0.0000,0.0000,
768,730.97,13680.53,-13680.53,1577.6000,65535.0000,46115.6000,44538.0000,0.0000,0.0000,0.0000,
769,731.38,13672.73,-13672.73,1538.4000,65535.0000,46048.6000,44510.2000,0.0000,0.0000,0.0000,
770,731.80,13664.94,-13664.94,1555.4000,65535.0000,46108.8000,44553.4000,0.0000,0.0000,0.0000,
771,732.22,13657.16,-13657.16,1535.8000,65535.0000,45943.0000,44407.2000,0.0000,0.0000,0.0000,
772,732.63,13649.39,-13649.39,1565.8000,65535.0000,45831.2000,44265.4000,0.0000,0.0000,0.0000,
773,733.05,13641.63,-13641.63,1569.4000,65535.0000,46026.6000,44457.2000,0.0000,0.0000,0.0000,
774,733.47,13633.89,-13633.89,1561.6000,65535.0000,45668.2000,44106.6000,0.0000,0.0000,0.0000,
775,733.88,13626.16,-13626.16,1585.2000,65535.0000,45627.0000,44041.8000,0.0000,0.0000,0.0000,
776,734.30,13618.45,-13618.45,1571.8000,65535.0000,45932.0000,44360.2000,0.0000,0.0000,0.0000,
777,734.71,13610.74,-13610.74,1575.6000,65535.0000,45660.6000,44085.0000,0.0000,0.0000,0.0000,
778,735.13,13603.05,-13603.05,1583.2000,65535.0000,45531.0000,43947.8000,0.0000,0.0000,0.0000,
779,735.54,13595.37,-13595.37,1558.0000,65535.0000,45545.6000,43987.6000,0.0000,0.0000,0.0000,
780,735.96,13587.71,-13587.71,1564.4000,65535.0000,45792.6000,44228.2000,0.0000,0.0000,0.0000,
781,736.37,13580.05,-13580.05,1543.4000,65535.0000,45536.0000,43992.6000,0.0000,0.0000,0.0000,
782,736.79,13572.41,-13572.41,1575.6000,65535.0000,45855.2000,44279.6000,0.0000,0.0000,0.0000,
783,737.20,13564.78,-13564.78,1565.2000,65535.0000,45944.6000,44379.4000,0.0000,0.0000,0.0000,
784,737.62,13557.17,-13557.17,1572.2000,65535.0000,46003.8000,44431.6000,0.0000,0.0000,0.0000,
785,738.03,13549.56,-13549.56,1558.4000,65535.0000,45913.8000,44355.4000,0.0000,0.0000,0.0000,
786,738.44,13541.97,-13541.97,1541.0000,65535.0000,45846.4000,44305.4000,0.0000,0.0000,0.0000,
787,738.86,13534.39,-13534.39,1575.6000,65535.0000,45725.4000,44149.8000,0.0000,0.0000,0.0000,
788,739.27,13526.83,-13526.83,1567.4000,65535.0000,45659.0000,44091.6000,0.0000,0.0000,0.0000,
789,739.68,13519.27,-13519.27,1581.4000,65535.0000,45805.2000,44223.8000,0.0000,0.0000,0.0000,
790,740.10,13511.73,-13511.73,1576.4000,65535.0000,45490.4000,43914.0000,0.0000,0.0000,0.0000,
791,740.51,13504.20,-13504.20,1537.8000,65535.0000,45326.8000,43789.0000,0.0000,0.0000,0.0000,
792,740.92,13496.69,-13496.69,1564.8000,65535.0000,45386.4000,43821.6000,0.0000,0.0000,0.0000,
793,741.33,13489.18,-13489.18,1537.4000,65535.0000,45304.0000,43766.6000,0.0000,0.0000,0.0000,
794,741.75,13481.69,-13481.69,1568.8000,65535.0000,45083.8000,43515.0000,0.0000,0.0000,0.0000,
795,742.16,13474.21,-13474.21,1566.6000,65535.0000,44828.2000,43261.6000,0.0000,0.0000,0.0000,
796,742.57,13466.74,-13466.74,1564.2000,65535.0000,44953.6000,43389.4000,0.0000,0.0000,0.0000,
797,742.98,13459.28,-13459.28,1554.8000,65535.0000,44852.8000,43298.0000,0.0000,0.0000,0.0000,
798,743.39,13451.84,-13451.84,1563.2000,65535.0000,44971.4000,43408.2000,0.0000,0.0000,0.0000,
799,743.80,13444.40,-13444.40,1544.0000,65535.0000,45373.0000,43829.0000,0.0000,0.0000,0.0000,
800,744.21,13436.98,-13436.98,1569.0000,65535.0000,45336.0000,43767.0000,0.0000,0.0000,0.0000,
801,744.63,13429.58,-13429.58,1559.2000,65535.0000,45000.2000,43441.0000,0.0000,0.0000,0.0000,
802,745.04,13422.18,-13422.18,1553.6000,65535.0000,44773.4000,43219.8000,0.0000,0.0000,0.0000,
803,745.45,13414.79,-13414.79,1562.4000,65535.0000,44433.6000,42871.2000,0.0000,0.0000,0.0000,
804,745.86,13407.42,-13407.42,1557.0000,65535.0000,44488.0000,42931.0000,0.0000,0.0000,0.0000,
805,746.27,13400.06,-13400.06,1537.8000,65535.0000,44780.4000,43242.6000,0.0000,0.0000,0.0000,
806,746.67,13392.71,-13392.71,1552.8000,65535.0000,44821.0000,43268.2000,0.0000,0.0000,0.0000,
807,747.08,13385.38,-13385.38,1539.6000,65535.0000,44679.0000,43139.4000,0.0000,0.0000,0.0000,
808,747.49,13378.05,-13378.05,1559.0000,65535.0000,44441.6000,42882.6000,0.0000,0.0000,0.0000,
809,747.90,13370.74,-13370.74,1576.2000,65535.0000,44738.2000,43162.0000,0.0000,0.0000,0.0000,
810,748.31,13363.44,-13363.44,1566.0000,65535.0000,44704.6000,43138.6000,0.0000,0.0000,0.0000,
811,748.72,13356.15,-13356.15,1563.0000,65535.0000,44469.4000,42906.4000,0.0000,0.0000,0.0000,
812,749.13,13348.87,-13348.87,1571.0000,65535.0000,44213.8000,42642.8000,0.0000,0.0000,0.0000,
813,749.54,13341.60,-13341.60,1573.8000,65535.0000,44421.8000,42848.0000,0.0000,0.0000,0.0000,
814,749.94,13334.35,-13334.35,1564.6000,65535.0000,44173.4000,42608.8000,0.0000,0.0000,0.0000,
815,750.35,13327.10,-13327.10,1554.0000,65535.0000,43893.2000,42339.2000,0.0000,0.0000,0.0000,
816,750.76,13319.87,-13319.87,1578.2000,65535.0000,43942.6000,42364.4000,0.0000,0.0000,0.0000,
817,751.17,13312.65,-13312.65,1578.8000,65535.0000,43875.2000,42296.4000,0.0000,0.0000,0.0000,
818,751.57,13305.45,-13305.45,1581.8000,65535.0000,43791.2000,42209.4000,0.0000,0.0000,0.0000,
819,751.98,13298.25,-13298.25,1559.4000,65535.0000,43368.0000,41808.6000,0.0000,0.0000,0.0000,
820,752.39,13291.06,-13291.06,1559.6000,65535.0000,43391.8000,41832.2000,0.0000,0.0000,0.0000,
821,752.79,13283.89,-13283.89,1543.6000,65535.0000,43216.0000,41672.4000,0.0000,0.0000,0.0000,
822,753.20,13276.73,-13276.73,1538.0000,65535.0000,43169.4000,41631.4000,0.0000,0.0000,0.0000,
823,753.60,13269.58,-13269.58,1561.2000,65535.0000,42628.0000,41066.8000,0.0000,0.0000,0.0000,
824,754.01,13262.44,-13262.44,1564.6000,65535.0000,43192.8000,41628.2000,0.0000,0.0000,0.0000,
825,754.41,13255.31,-13255.31,1575.0000,65535.0000,43064.4000,41489.4000,0.0000,0.0000,0.0000,
826,754.82,13248.19,-13248.19,1553.4000,65535.0000,43397.2000,41843.8000,0.0000,0.0000,0.0000,
827,755.22,13241.09,-13241.09,1568.0000,65535.0000,43141.8000,41573.8000,0.0000,0.0000,0.0000,
828,755.63,13233.99,-13233.99,1554.2000,65535.0000,42537.8000,40983.6000,0.0000,0.0000,0.0000,
829,756.03,13226.91,-13226.91,1562.6000,65535.0000,42129.0000,40566.4000,0.0000,0.0000,0.0000,
830,756.44,13219.84,-13219.84,1581.2000,65535.0000,42533.8000,40952.6000,0.0000,0.0000,0.0000,
831,756.84,13212.78,-13212.78,1552.4000,65535.0000,42371.6000,40819.2000,0.0000,0.0000,0.0000,
832,757.25,13205.73,-13205.73,1557.4000,65535.0000,42276.2000,40718.8000,0.0000,0.0000,0.0000,
833,757.65,13198.69,-13198.69,1585.4000,65535.0000,41955.8000,40370.4000,0.0000,0.0000,0.0000,
834,758.05,13191.67,-13191.67,1566.8000,65535.0000,41968.2000,40401.4000,0.0000,0.0000,0.0000,
835,758.46,13184.65,-13184.65,1571.2000,65535.0000,42142.4000,40571.2000,0.0000,0.0000,0.0000,
836,758.86,13177.65,-13177.65,1560.2000,65535.0000,42155.4000,40595.2000,0.0000,0.0000,0.0000,
837,759.26,13170.66,-13170.66,1574.2000,65535.0000,41643.6000,40069.4000,0.0000,0.0000,0.0000,
838,759.67,13163.67,-13163.67,1543.4000,65535.0000,41490.2000,39946.8000,0.0000,0.0000,0.0000,
839,760.07,13156.70,-13156.70,1566.4000,65535.0000,41318.0000,39751.6000,0.0000,0.0000,0.0000,
840,760.47,13149.74,-13149.74,1568.0000,65535.0000,41405.6000,39837.6000,0.0000,0.0000,0.0000,
841,760.87,13142.80,-13142.80,1580.2000,65535.0000,41182.4000,39602.2000,0.0000,0.0000,0.0000,
842,761.28,13135.86,-13135.86,1564.8000,65535.0000,41090.0000,39525.2000,0.0000,0.0000,0.0000,
843,761.68,13128.93,-13128.93,1546.8000,65535.0000,40744.2000,39197.4000,0.0000,0.0000,0.0000,
844,762.08,13122.02,-13122.02,1577.4000,65535.0000,40901.2000,39323.8000,0.0000,0.0000,0.0000,
845,762.48,13115.11,-13115.11,1557.6000,65535.0000,41039.2000,39481.6000,0.0000,0.0000,0.0000,
846,762.88,13108.22,-13108.22,1564.6000,65535.0000,40602.4000,39037.8000,0.0000,0.0000,0.0000,
847,763.28,13101.33,-13101.33,1563.6000,65535.0000,40166.8000,38603.2000,0.0000,0.0000,0.0000,
848,763.68,13094.46,-13094.46,1573.2000,65535.0000,39935.0000,38361.8000,0.0000,0.0000,0.0000,
849,764.08,13087.60,-13087.60,1560.8000,65535.0000,39820.8000,38260.0000,0.0000,0.0000,0.0000,
850,764.48,13080.75,-13080.75,1591.6000,65535.0000,39597.2000,38005.6000,0.0000,0.0000,0.0000,
851,764.88,13073.91,-13073.91,1578.6000,65535.0000,39831.6000,38253.0000,0.0000,0.0000,0.0000,
852,765.28,13067.08,-13067.08,1556.0000,65535.0000,39893.8000,38337.8000,0.0000,0.0000,0.0000,
853,765.68,13060.26,-13060.26,1528.8000,65535.0000,39504.8000,37976.0000,0.0000,0.0000,0.0000,
854,766.08,13053.45,-13053.45,1548.0000,65535.0000,39396.2000,37848.2000,0.0000,0.0000,0.0000,
855,766.48,13046.66,-13046.66,1563.0000,65535.0000,39395.8000,37832.8000,0.0000,0.0000,0.0000,
856,766.88,13039.87,-13039.87,1558.0000,65535.0000,39600.6000,38042.6000,0.0000,0.0000,0.0000,
857,767.28,13033.10,-13033.10,1550.0000,65535.0000,39383.4000,37833.4000,0.0000,0.0000,0.0000,
858,767.68,13026.33,-13026.33,1558.8000,65535.0000,39164.8000,37606.0000,0.0000,0.0000,0.0000,
859,768.07,13019.58,-13019.58,1561.0000,65535.0000,39310.6000,37749.6000,0.0000,0.0000,0.0000,
860,768.47,13012.83,-13012.83,1541.4000,65535.0000,39112.4000,37571.0000,0.0000,0.0000,0.0000,
861,768.87,13006.10,-13006.10,1549.2000,65535.0000,38729.4000,37180.2000,0.0000,0.0000,0.0000,
862,769.27,12999.38,-12999.38,1562.2000,65535.0000,38441.2000,36879.0000,0.0000,0.0000,0.0000,
863,769.66,12992.67,-12992.67,1583.0000,65535.0000,38679.4000,37096.4000,0.0000,0.0000,0.0000,
864,770.06,12985.96,-12985.96,1561.2000,65535.0000,38828.4000,37267.2000,0.0000,0.0000,0.0000,
865,770.46,12979.27,-12979.27,1561.2000,65535.0000,38773.2000,37212.0000,0.0000,0.0000,0.0000,
866,770.86,12972.59,-12972.59,1566.2000,65535.0000,38406.2000,36840.0000,0.0000,0.0000,0.0000,
867,771.25,12965.92,-12965.92,1578.8000,65535.0000,38553.4000,36974.6000,0.0000,0.0000,0.0000,
868,771.65,12959.26,-12959.26,1565.4000,65535.0000,38344.0000,36778.6000,0.0000,0.0000,0.0000,
869,772.04,12952.61,-12952.61,1578.0000,65535.0000,38039.6000,36461.6000,0.0000,0.0000,0.0000,
870,772.44,12945.98,-12945.98,1565.6000,65535.0000,38074.4000,36508.8000,0.0000,0.0000,0.0000,
871,772.84,12939.35,-12939.35,1549.2000,65535.0000,37790.6000,36241.4000,0.0000,0.0000,0.0000,
872,773.23,12932.73,-12932.73,1569.2000,65535.0000,37635.6000,36066.4000,0.0000,0.0000,0.0000,
873,773.63,12926.12,-12926.12,1569.8000,65535.0000,37420.2000,35850.4000,0.0000,0.0000,0.0000,
874,774.02,12919.52,-12919.52,1545.0000,65535.0000,37397.0000,35852.0000,0.0000,0.0000,0.0000,
875,774.42,12912.94,-12912.94,1562.6000,65535.0000,37187.6000,35625.0000,0.0000,0.0000,0.0000,
876,774.81,12906.36,-12906.36,1552.4000,65535.0000,36944.0000,35391.6000,0.0000,0.0000,0.0000,
877,775.21,12899.79,-12899.79,1548.8000,65535.0000,36797.4000,35248.6000,0.0000,0.0000,0.0000,
878,775.60,12893.24,-12893.24,1572.8000,65535.0000,37059.4000,35486.6000,0.0000,0.0000,0.0000,
879,775.99,12886.69,-12886.69,1582.0000,65535.0000,36580.2000,34998.2000,0.0000,0.0000,0.0000,
880,776.39,12880.15,-12880.15,1586.8000,65535.0000,36599.2000,35012.4000,0.0000,0.0000,0.0000,
881,776.78,12873.63,-12873.63,1582.4000,65535.0000,36591.2000,35008.8000,0.0000,0.0000,0.0000,
882,777.18,12867.11,-12867.11,1578.4000,65535.0000,36679.4000,35101.0000,0.0000,0.0000,0.0000,
883,777.57,12860.61,-12860.61,1568.2000,65535.0000,36387.4000,34819.2000,0.0000,0.0000,0.0000,
884,777.96,12854.11,-12854.11,1578.4000,65535.0000,36042.6000,34464.2000,0.0000,0.0000,0.0000,
885,778.35,12847.62,-12847.62,1533.6000,65535.0000,36350.0000,34816.4000,0.0000,0.0000,0.0000,
886,778.75,12841.15,-12841.15,1556.6000,65535.0000,35971.6000,34415.0000,0.0000,0.0000,0.0000,
887,779.14,12834.68,-12834.68,1555.4000,65535.0000,35904.2000,34348.8000,0.0000,0.0000,0.0000,
888,779.53,12828.23,-12828.23,1572.0000,65535.0000,35744.2000,34172.2000,0.0000,0.0000,0.0000,
889,779.92,12821.78,-12821.78,1587.2000,65535.0000,35861.6000,34274.4000,0.0000,0.0000,0.0000,
890,780.31,12815.35,-12815.35,1575.2000,65535.0000,35895.0000,34319.8000,0.0000,0.0000,0.0000,
891,780.71,12808.92,-12808.92,1565.6000,65535.0000,35718.4000,34152.8000,0.0000,0.0000,0.0000,
892,781.10,12802.50,-12802.50,1539.4000,65535.0000,35695.4000,34156.0000,0.0000,0.0000,0.0000,
893,781.49,12796.10,-12796.10,1555.4000,65535.0000,35744.2000,34188.8000,0.0000,0.0000,0.0000,
894,781.88,12789.70,-12789.70,1536.2000,65535.0000,35569.2000,34033.0000,0.0000,0.0000,0.0000,
895,782.27,12783.32,-12783.32,1577.4000,65535.0000,35114.4000,33537.0000,0.0000,0.0000,0.0000,
896,782.66,12776.94,-12776.94,1553.4000,65535.0000,35117.0000,33563.6000,0.0000,0.0000,0.0000,
897,783.05,12770.57,-12770.57,1580.0000,65535.0000,34913.0000,33333.0000,0.0000,0.0000,0.0000,
898,783.44,12764.22,-12764.22,1560.2000,65535.0000,34579.2000,33019.0000,0.0000,0.0000,0.0000,
899,783.83,12757.87,-12757.87,1574.0000,65535.0000,34642.0000,33068.0000,0.0000,0.0000,0.0000,
900,784.22,12751.53,-12751.53,1572.2000,65535.0000,34379.4000,32807.2000,0.0000,0.0000,0.0000,
901,784.61,12745.20,-12745.20,1568.8000,65535.0000,34396.2000,32827.4000,0.0000,0.0000,0.0000,
902,785.00,12738.89,-12738.89,1561.0000,65535.0000,34687.4000,33126.4000,0.0000,0.0000,0.0000,
903,785.39,12732.58,-12732.58,1583.2000,65535.0000,34327.0000,32743.8000,0.0000,0.0000,0.0000,
904,785.78,12726.28,-12726.28,1575.0000,65535.0000,34335.8000,32760.8000,0.0000,0.0000,0.0000,
905,786.16,12719.99,-12719.99,1552.8000,65535.0000,34085.6000,32532.8000,0.0000,0.0000,0.0000,
906,786.55,12713.71,-12713.71,1576.0000,65535.0000,33792.0000,32216.0000,0.0000,0.0000,0.0000,
907,786.94,12707.44,-12707.44,1534.0000,65535.0000,33829.6000,32295.6000,0.0000,0.0000,0.0000,
908,787.33,12701.18,-12701.18,1572.0000,65535.0000,33597.8000,32025.8000,0.0000,0.0000,0.0000,
909,787.72,12694.93,-12694.93,1571.4000,65535.0000,33613.0000,32041.6000,0.0000,0.0000,0.0000,
910,788.10,12688.69,-12688.69,1550.0000,65535.0000,33319.2000,31769.2000,0.0000,0.0000,0.0000,
911,788.49,12682.46,-12682.46,1565.0000,65535.0000,33112.6000,31547.6000,0.0000,0.0000,0.0000,
912,788.88,12676.24,-12676.24,1540.2000,65535.0000,33132.6000,31592.4000,0.0000,0.0000,0.0000,
913,789.26,12670.03,-12670.03,1554.2000,65535.0000,33002.2000,31448.0000,0.0000,0.0000,0.0000,
914,789.65,12663.83,-12663.83,1531.0000,65535.0000,32926.4000,31395.4000,0.0000,0.0000,0.0000,
915,790.04,12657.63,-12657.63,1562.4000,65535.0000,32966.0000,31403.6000,0.0000,0.0000,0.0000,
916,790.42,12651.45,-12651.45,1573.8000,65535.0000,32886.2000,31312.4000,0.0000,0.0000,0.0000,
917,790.81,12645.28,-12645.28,1580.4000,65535.0000,33153.8000,31573.4000,0.0000,0.0000,0.0000,
918,791.19,12639.11,-12639.11,1547.2000,65535.0000,33131.2000,31584.0000,0.0000,0.0000,0.0000,
919,791.58,12632.96,-12632.96,1560.0000,65535.0000,32797.4000,31237.4000,0.0000,0.0000,0.0000,
920,791.97,12626.81,-12626.81,1547.2000,65535.0000,32803.8000,31256.6000,0.0000,0.0000,0.0000,
921,792.35,12620.67,-12620.67,1562.2000,65535.0000,32809.8000,31247.6000,0.0000,0.0000,0.0000,
922,792.74,12614.55,-12614.55,1555.0000,65535.0000,32659.8000,31104.8000,0.0000,0.0000,0.0000,
923,793.12,12608.43,-12608.43,1539.8000,65535.0000,32509.4000,30969.6000,0.0000,0.0000,0.0000,
924,793.50,12602.32,-12602.32,1571.8000,65535.0000,32419.6000,30847.8000,0.0000,0.0000,0.0000,
925,793.89,12596.22,-12596.22,1546.0000,65535.0000,32653.4000,31107.4000,0.0000,0.0000,0.0000,
926,794.27,12590.13,-12590.13,1559.8000,65535.0000,32625.8000,31066.0000,0.0000,0.0000,0.0000,
927,794.66,12584.05,-12584.05,1557.6000,65535.0000,32532.6000,30975.0000,0.0000,0.0000,0.0000,
928,795.04,12577.98,-12577.98,1562.0000,65535.0000,32042.4000,30480.4000,0.0000,0.0000,0.0000,
929,795.42,12571.92,-12571.92,1564.0000,65535.0000,32173.6000,30609.6000,0.0000,0.0000,0.0000,
930,795.81,12565.86,-12565.86,1546.8000,65535.0000,32156.2000,30609.4000,0.0000,0.0000,0.0000,
931,796.19,12559.82,-12559.82,1546.0000,65535.0000,31829.6000,30283.6000,0.0000,0.0000,0.0000,
932,796.57,12553.78,-12553.78,1550.8000,65535.0000,31798.6000,30247.8000,0.0000,0.0000,0.0000,
933,796.96,12547.76,-12547.76,1562.8000,65535.0000,31363.6000,29800.8000,0.0000,0.0000,0.0000,
934,797.34,12541.74,-12541.74,1565.0000,65535.0000,31521.4000,29956.4000,0.0000,0.0000,0.0000,
935,797.72,12535.74,-12535.74,1579.0000,65535.0000,31511.2000,29932.2000,0.0000,0.0000,0.0000,
936,798.10,12529.74,-12529.74,1559.8000,65535.0000,31556.4000,29996.6000,0.0000,0.0000,0.0000,
937,798.48,12523.75,-12523.75,1558.6000,65535.0000,31710.2000,30151.6000,0.0000,0.0000,0.0000,
938,798.86,12517.77,-12517.77,1580.8000,65535.0000,31231.0000,29650.2000,0.0000,0.0000,0.0000,
939,799.25,12511.80,-12511.80,1564.4000,65535.0000,30953.8000,29389.4000,0.0000,0.0000,0.0000,
940,799.63,12505.83,-12505.83,1562.0000,65535.0000,30750.6000,29188.6000,0.0000,0.0000,0.0000,
941,800.01,12499.88,-12499.88,1578.2000,65535.0000,31006.6000,29428.4000,0.0000,0.0000,0.0000,
942,800.39,12493.94,-12493.94,1552.2000,65535.0000,31072.0000,29519.8000,0.0000,0.0000,0.0000,
943,800.77,12488.00,-12488.00,1590.0000,65535.0000,30984.2000,29394.2000,0.0000,0.0000,0.0000,
944,801.15,12482.08,-12482.08,1563.4000,65535.0000,30784.2000,29220.8000,0.0000,0.0000,0.0000,
945,801.53,12476.16,-12476.16,1562.4000,65535.0000,30726.2000,29163.8000,0.0000,0.0000,0.0000,
946,801.91,12470.25,-12470.25,1568.8000,65535.0000,30874.6000,29305.8000,0.0000,0.0000,0.0000,
947,802.29,12464.35,-12464.35,1557.8000,65535.0000,31172.2000,29614.4000,0.0000,0.0000,0.0000,
948,802.67,12458.46,-12458.46,1567.8000,65535.0000,31051.4000,29483.6000,0.0000,0.0000,0.0000,
949,803.05,12452.58,-12452.58,1551.2000,65535.0000,31029.2000,29478.0000,0.0000,0.0000,0.0000,
950,803.43,12446.71,-12446.71,1549.4000,65535.0000,31061.4000,29512.0000,0.0000,0.0000,0.0000,
951,803.80,12440.84,-12440.84,1559.2000,65535.0000,31007.2000,29448.0000,0.0000,0.0000,0.0000,
952,804.18,12434.99,-12434.99,1582.0000,65535.0000,31091.0000,29509.0000,0.0000,0.0000,0.0000,
953,804.56,12429.14,-12429.14,1573.6000,65535.0000,30910.2000,29336.6000,0.0000,0.0000,0.0000,
954,804.94,12423.30,-12423.30,1559.8000,65535.0000,30554.2000,28994.4000,0.0000,0.0000,0.0000,
955,805.32,12417.48,-12417.48,1566.6000,65535.0000,30547.8000,28981.2000,0.0000,0.0000,0.0000,
956,805.69,12411.66,-12411.66,1561.2000,65535.0000,30316.4000,28755.2000,0.0000,0.0000,0.0000,
957,806.07,12405.84,-12405.84,1555.8000,65535.0000,30309.6000,28753.8000,0.0000,0.0000,0.0000,
958,806.45,12400.04,-12400.04,1552.4000,65535.0000,30410.4000,28858.0000,0.0000,0.0000,0.0000,
959,806.83,12394.25,-12394.25,1563.2000,65535.0000,30173.4000,28610.2000,0.0000,0.0000,0.0000,
960,807.20,12388.46,-12388.46,1566.0000,65535.0000,30219.6000,28653.6000,0.0000,0.0000,0.0000,
961,807.58,12382.69,-12382.69,1566.8000,65535.0000,30351.6000,28784.8000,0.0000,0.0000,0.0000,
962,807.96,12376.92,-12376.92,1542.0000,65535.0000,30081.8000,28539.8000,0.0000,0.0000,0.0000,
963,808.33,12371.16,-12371.16,1547.2000,65535.0000,30175.4000,28628.2000,0.0000,0.0000,0.0000,
964,808.71,12365.41,-12365.41,1586.8000,65535.0000,30527.6000,28940.8000,0.0000,0.0000,0.0000,
965,809.08,12359.67,-12359.67,1573.8000,65535.0000,30364.0000,28790.2000,0.0000,0.0000,0.0000,
966,809.46,12353.93,-12353.93,1567.8000,65535.0000,30212.6000,28644.8000,0.0000,0.0000,0.0000,
967,809.83,12348.21,-12348.21,1556.2000,65535.0000,30159.8000,28603.6000,0.0000,0.0000,0.0000,
968,810.21,12342.49,-12342.49,1574.6000,65535.0000,30170.6000,28596.0000,0.0000,0.0000,0.0000,
969,810.58,12336.78,-12336.78,1570.2000,65535.0000,29883.6000,28313.4000,0.0000,0.0000,0.0000,
970,810.96,12331.08,-12331.08,1564.0000,65535.0000,29573.6000,28009.6000,0.0000,0.0000,0.0000,
971,811.33,12325.39,-12325.39,1559.4000,65535.0000,29537.0000,27977.6000,0.0000,0.0000,0.0000,
972,811.71,12319.71,-12319.71,1572.6000,65535.0000,29372.4000,27799.8000,0.0000,0.0000,0.0000,
973,812.08,12314.04,-12314.04,1563.0000,65535.0000,29415.2000,27852.2000,0.0000,0.0000,0.0000,
974,812.46,12308.37,-12308.37,1575.4000,65535.0000,29486.8000,27911.4000,0.0000,0.0000,0.0000,
975,812.83,12302.72,-12302.72,1559.0000,65535.0000,29578.4000,28019.4000,0.0000,0.0000,0.0000,
976,813.20,12297.07,-12297.07,1551.8000,65535.0000,29424.8000,27873.0000,0.0000,0.0000,0.0000,
977,813.58,12291.43,-12291.43,1564.0000,65535.0000,29695.6000,28131.6000,0.0000,0.0000,0.0000,
978,813.95,12285.79,-12285.79,1557.0000,65535.0000,29365.0000,27808.0000,0.0000,0.0000,0.0000,
979,814.32,12280.17,-12280.17,1528.6000,65535.0000,29580.8000,28052.2000,0.0000,0.0000,0.0000,
980,814.69,12274.56,-12274.56,1577.0000,65535.0000,29359.2000,27782.2000,0.0000,0.0000,0.0000,
981,815.07,12268.95,-12268.95,1587.6000,65535.0000,29635.2000,28047.6000,0.0000,0.0000,0.0000,
982,815.44,12263.35,-12263.35,1570.4000,65535.0000,29458.8000,27888.4000,0.0000,0.0000,0.0000,
983,815.81,12257.76,-12257.76,1546.4000,65535.0000,29193.8000,27647.4000,0.0000,0.0000,0.0000,
984,816.18,12252.18,-12252.18,1566.4000,65535.0000,29106.2000,27539.8000,0.0000,0.0000,0.0000,
985,816.55,12246.61,-12246.61,1552.0000,65535.0000,29270.2000,27718.2000,0.0000,0.0000,0.0000,
986,816.92,12241.04,-12241.04,1584.2000,65535.0000,29005.6000,27421.4000,0.0000,0.0000,0.0000,
987,817.29,12235.48,-12235.48,1572.6000,65535.0000,29379.2000,27806.6000,0.0000,0.0000,0.0000,
988,817.67,12229.94,-12229.94,1581.4000,65535.0000,29200.0000,27618.6000,0.0000,0.0000,0.0000,
989,818.04,12224.40,-12224.40,1574.4000,65535.0000,28869.8000,27295.4000,0.0000,0.0000,0.0000,
990,818.41,12218.86,-12218.86,1533.2000,65535.0000,28722.6000,27189.4000,0.0000,0.0000,0.0000,
991,818.78,12213.34,-12213.34,1535.0000,65535.0000,28804.0000,27269.0000,0.0000,0.0000,0.0000,
992,819.15,12207.82,-12207.82,1544.2000,65535.0000,28730.6000,27186.4000,0.0000,0.0000,0.0000,
993,819.52,12202.32,-12202.32,1546.4000,65535.0000,28754.2000,27207.8000,0.0000,0.0000,0.0000,
994,819.89,12196.82,-12196.82,1528.6000,65535.0000,28763.8000,27235.2000,0.0000,0.0000,0.0000,
995,820.26,12191.32,-12191.32,1543.2000,65535.0000,28573.0000,27029.8000,0.0000,0.0000,0.0000,
996,820.62,12185.84,-12185.84,1550.2000,65535.0000,28559.4000,27009.2000,0.0000,0.0000,0.0000,
997,820.99,12180.37,-12180.37,1565.4000,65535.0000,28535.2000,26969.8000,0.0000,0.0000,0.0000,
998,821.36,12174.90,-12174.90,1532.6000,65535.0000,28275.2000,26742.6000,0.0000,0.0000,0.0000,
999,821.73,12169.44,-12169.44,1542.4000,65535.0000,28394.0000,26851.6000,0.0000,0.0000,0.0000,
