File Version;BWSpec4.03_33_C
Date,2026-04-16 15:05:34
title,ZMYE
model,BRC1K
c code,ZMYE
operator,
port1,0
baud1,3
pixel_start,0
pixel_end,999
step,1
units,1
bkcolor,16777215
show_mode,3
data_mode,0
pixel_mode,0
intigration times(ms),8000
average number,5
time_multiply,1
spectrometer_type ,71
yaxis,1
yaxis_min,-494
yaxis_max,65535
xaxis,0
xaxis_min,0
xaxis_max,999
irrands_DispWLMin,100
irrands_DispWLMax,1000
yaxis_min_6,0
yaxis_max_6,0
irradiance_unit,0
Color_Data_Flag,0
Color_StartWL,400
Color_EndWL,700
Color_IncWL,10
power_unit_index,3
photometric_index,0
Illuminant_index,3
observer_index,0
lab_l,0
lab_a,0
lab_b,0
radiometric_flag,0
coefs_a0,348.690626413622
coefs_a1,0.577242842360403
coefs_a2,-0.000102397725884922
coefs_a3,-1.43696470178894E-09
coefs_b0,-604.699216452593
coefs_b1,1.81821494738794
coefs_b2,-0.000542372268672448
coefs_b3,8.54199818797248E-07
coefs_r0,1
coefs_r1,0
coefs_r2,0
coefs_r3,0
coefs_j0,1
coefs_j1,0
coefs_j2,0
coefs_j3,0
enable_coefs_r,0
all_data_save,1
select_option,-1
interval_time,8000
pixel_num,1000
sel_pixel_start,0
sel_pixel_end,968
sel_pixel_delta,1
dark_compensate,0
dark_compensate_value_1,0
dark_compensate_value_2,0
dark_compensate_value_3,0
monitor pixel_0,0
monitor pixel_1,0
monitor pixel_2,0
monitor pixel_3,0
monitor pixel_4,0
monitor pixel_5,0
vertical_select_flag,0
vertical_line3,0
vertical_line4,0
vertical_line3_wv,1
vertical_line4_wv,1
vertical_line_flag,0
vertical_line_ratio,0
laser_wavelength,0
laser_powerlevel,0
overlay_js,0
Relative Intensity Correction Flag,0
Pixel,Wavelength,Wavenumber,Raman Shift,Dark,Reference,Raw data #1,Dark Subtracted #1,%TR #1,Absorbance #1,Irradiance (lumen) #1,
0,348.69,28678.72,-28678.72,2258.0000,65535.0000,2269.2000,11.2000,0.0000,0.0000,0.0000,
1,349.27,28631.33,-28631.33,2237.8000,65535.0000,2251.6000,13.8000,0.0000,0.0000,0.0000,
2,349.84,28584.11,-28584.11,2351.2000,65535.0000,2378.2000,27.0000,0.0000,0.0000,0.0000,
3,350.42,28537.07,-28537.07,2348.2000,65535.0000,2356.4000,8.2000,0.0000,0.0000,0.0000,
4,351.00,28490.19,-28490.19,2294.2000,65535.0000,2361.2000,67.0000,0.0000,0.0000,0.0000,
5,351.57,28443.49,-28443.49,2798.2000,65535.0000,2829.0000,30.8000,0.0000,0.0000,0.0000,
6,352.15,28396.96,-28396.96,2473.8000,65535.0000,2462.2000,-11.6000,0.0000,0.0000,0.0000,
7,352.73,28350.59,-28350.59,3189.8000,65535.0000,3241.4000,51.6000,0.0000,0.0000,0.0000,
8,353.30,28304.40,-28304.40,2585.6000,65535.0000,2606.4000,20.8000,0.0000,0.0000,0.0000,
9,353.88,28258.36,-28258.36,2228.0000,65535.0000,2208.4000,-19.6000,0.0000,0.0000,0.0000,
10,354.45,28212.50,-28212.50,2278.4000,65535.0000,2289.4000,11.0000,0.0000,0.0000,0.0000,
11,355.03,28166.80,-28166.80,2742.0000,65535.0000,2772.2000,30.2000,0.0000,0.0000,0.0000,
12,355.60,28121.26,-28121.26,2223.8000,65535.0000,2250.6000,26.8000,0.0000,0.0000,0.0000,
13,356.18,28075.89,-28075.89,2680.0000,65535.0000,2714.6000,34.6000,0.0000,0.0000,0.0000,
14,356.75,28030.68,-28030.68,2407.8000,65535.0000,2429.8000,22.0000,0.0000,0.0000,0.0000,
15,357.33,27985.63,-27985.63,2347.6000,65535.0000,2358.4000,10.8000,0.0000,0.0000,0.0000,
16,357.90,27940.74,-27940.74,2386.2000,65535.0000,2371.0000,-15.2000,0.0000,0.0000,0.0000,
17,358.47,27896.01,-27896.01,2987.0000,65535.0000,3015.8000,28.8000,0.0000,0.0000,0.0000,
18,359.05,27851.44,-27851.44,2290.6000,65535.0000,2278.4000,-12.2000,0.0000,0.0000,0.0000,
19,359.62,27807.03,-27807.03,2387.8000,65535.0000,2445.0000,57.2000,0.0000,0.0000,0.0000,
20,360.19,27762.78,-27762.78,2498.2000,65535.0000,2526.4000,28.2000,0.0000,0.0000,0.0000,
21,360.77,27718.68,-27718.68,2170.4000,65535.0000,2160.0000,-10.4000,0.0000,0.0000,0.0000,
22,361.34,27674.74,-27674.74,2484.4000,65535.0000,2511.2000,26.8000,0.0000,0.0000,0.0000,
23,361.91,27630.95,-27630.95,2257.6000,65535.0000,2290.2000,32.6000,0.0000,0.0000,0.0000,
24,362.49,27587.31,-27587.31,2577.8000,65535.0000,2558.2000,-19.6000,0.0000,0.0000,0.0000,
25,363.06,27543.83,-27543.83,2336.0000,65535.0000,2330.8000,-5.2000,0.0000,0.0000,0.0000,
26,363.63,27500.50,-27500.50,2310.8000,65535.0000,2294.4000,-16.4000,0.0000,0.0000,0.0000,
27,364.20,27457.33,-27457.33,2337.2000,65535.0000,2349.6000,12.4000,0.0000,0.0000,0.0000,
28,364.77,27414.30,-27414.30,2724.4000,65535.0000,2753.2000,28.8000,0.0000,0.0000,0.0000,
29,365.34,27371.42,-27371.42,1993.4000,65535.0000,2011.4000,18.0000,0.0000,0.0000,0.0000,
30,365.92,27328.70,-27328.70,2202.8000,65535.0000,2183.0000,-19.8000,0.0000,0.0000,0.0000,
31,366.49,27286.12,-27286.12,2194.6000,65535.0000,2203.4000,8.8000,0.0000,0.0000,0.0000,
32,367.06,27243.69,-27243.69,2554.6000,65535.0000,2562.2000,7.6000,0.0000,0.0000,0.0000,
33,367.63,27201.40,-27201.40,2315.4000,65535.0000,2296.4000,-19.0000,0.0000,0.0000,0.0000,
34,368.20,27159.27,-27159.27,2746.2000,65535.0000,2764.2000,18.0000,0.0000,0.0000,0.0000,
35,368.77,27117.27,-27117.27,2655.2000,65535.0000,2677.2000,22.0000,0.0000,0.0000,0.0000,
36,369.34,27075.43,-27075.43,2115.4000,65535.0000,2138.0000,22.6000,0.0000,0.0000,0.0000,
37,369.91,27033.72,-27033.72,2339.2000,65535.0000,2341.4000,2.2000,0.0000,0.0000,0.0000,
38,370.48,26992.16,-26992.16,2522.2000,65535.0000,2551.6000,29.4000,0.0000,0.0000,0.0000,
39,371.05,26950.74,-26950.74,2309.2000,65535.0000,2261.4000,-47.8000,0.0000,0.0000,0.0000,
40,371.62,26909.47,-26909.47,2283.4000,65535.0000,2283.4000,0.0000,0.0000,0.0000,0.0000,
41,372.19,26868.33,-26868.33,2056.2000,65535.0000,2039.4000,-16.8000,0.0000,0.0000,0.0000,
42,372.75,26827.34,-26827.34,2133.6000,65535.0000,2137.8000,4.2000,0.0000,0.0000,0.0000,
43,373.32,26786.48,-26786.48,2235.8000,65535.0000,2212.4000,-23.4000,0.0000,0.0000,0.0000,
44,373.89,26745.77,-26745.77,2278.8000,65535.0000,2264.6000,-14.2000,0.0000,0.0000,0.0000,
45,374.46,26705.19,-26705.19,2402.8000,65535.0000,2349.6000,-53.2000,0.0000,0.0000,0.0000,
46,375.03,26664.75,-26664.75,2284.2000,65535.0000,2280.0000,-4.2000,0.0000,0.0000,0.0000,
47,375.59,26624.44,-26624.44,2353.0000,65535.0000,2349.4000,-3.6000,0.0000,0.0000,0.0000,
48,376.16,26584.28,-26584.28,2243.4000,65535.0000,2246.2000,2.8000,0.0000,0.0000,0.0000,
49,376.73,26544.24,-26544.24,2279.0000,65535.0000,2233.6000,-45.4000,0.0000,0.0000,0.0000,
50,377.30,26504.35,-26504.35,2465.6000,65535.0000,2490.6000,25.0000,0.0000,0.0000,0.0000,
51,377.86,26464.58,-26464.58,2674.2000,65535.0000,2685.6000,11.4000,0.0000,0.0000,0.0000,
52,378.43,26424.95,-26424.95,2770.6000,65535.0000,2794.8000,24.2000,0.0000,0.0000,0.0000,
53,379.00,26385.46,-26385.46,3091.4000,65535.0000,3121.8000,30.4000,0.0000,0.0000,0.0000,
54,379.56,26346.09,-26346.09,2074.4000,65535.0000,2044.6000,-29.8000,0.0000,0.0000,0.0000,
55,380.13,26306.86,-26306.86,2099.8000,65535.0000,2078.6000,-21.2000,0.0000,0.0000,0.0000,
56,380.69,26267.76,-26267.76,2686.4000,65535.0000,2685.2000,-1.2000,0.0000,0.0000,0.0000,
57,381.26,26228.78,-26228.78,2394.0000,65535.0000,2395.2000,1.2000,0.0000,0.0000,0.0000,
58,381.83,26189.94,-26189.94,2470.8000,65535.0000,2518.2000,47.4000,0.0000,0.0000,0.0000,
59,382.39,26151.23,-26151.23,2405.0000,65535.0000,2422.2000,17.2000,0.0000,0.0000,0.0000,
60,382.96,26112.64,-26112.64,2541.0000,65535.0000,2524.6000,-16.4000,0.0000,0.0000,0.0000,
61,383.52,26074.19,-26074.19,2286.8000,65535.0000,2290.2000,3.4000,0.0000,0.0000,0.0000,
62,384.09,26035.85,-26035.85,2482.8000,65535.0000,2506.0000,23.2000,0.0000,0.0000,0.0000,
63,384.65,25997.65,-25997.65,2304.4000,65535.0000,2278.2000,-26.2000,0.0000,0.0000,0.0000,
64,385.21,25959.57,-25959.57,2839.2000,65535.0000,2852.0000,12.8000,0.0000,0.0000,0.0000,
65,385.78,25921.62,-25921.62,2408.0000,65535.0000,2409.6000,1.6000,0.0000,0.0000,0.0000,
66,386.34,25883.79,-25883.79,2713.4000,65535.0000,2714.0000,0.6000,0.0000,0.0000,0.0000,
67,386.91,25846.08,-25846.08,2342.4000,65535.0000,2321.6000,-20.8000,0.0000,0.0000,0.0000,
68,387.47,25808.50,-25808.50,2390.2000,65535.0000,2418.6000,28.4000,0.0000,0.0000,0.0000,
69,388.03,25771.04,-25771.04,2282.8000,65535.0000,2266.4000,-16.4000,0.0000,0.0000,0.0000,
70,388.60,25733.71,-25733.71,2074.2000,65535.0000,2053.2000,-21.0000,0.0000,0.0000,0.0000,
71,389.16,25696.49,-25696.49,2597.0000,65535.0000,2578.2000,-18.8000,0.0000,0.0000,0.0000,
72,389.72,25659.40,-25659.40,2654.2000,65535.0000,2650.6000,-3.6000,0.0000,0.0000,0.0000,
73,390.28,25622.43,-25622.43,3030.6000,65535.0000,3048.6000,18.0000,0.0000,0.0000,0.0000,
74,390.85,25585.57,-25585.57,2311.2000,65535.0000,2316.2000,5.0000,0.0000,0.0000,0.0000,
75,391.41,25548.84,-25548.84,2235.0000,65535.0000,2253.8000,18.8000,0.0000,0.0000,0.0000,
76,391.97,25512.22,-25512.22,2784.6000,65535.0000,2792.8000,8.2000,0.0000,0.0000,0.0000,
77,392.53,25475.72,-25475.72,2474.4000,65535.0000,2531.2000,56.8000,0.0000,0.0000,0.0000,
78,393.09,25439.34,-25439.34,2647.2000,65535.0000,2674.0000,26.8000,0.0000,0.0000,0.0000,
79,393.65,25403.08,-25403.08,2501.2000,65535.0000,2557.8000,56.6000,0.0000,0.0000,0.0000,
80,394.21,25366.93,-25366.93,2885.4000,65535.0000,2879.4000,-6.0000,0.0000,0.0000,0.0000,
81,394.77,25330.90,-25330.90,2410.6000,65535.0000,2451.2000,40.6000,0.0000,0.0000,0.0000,
82,395.34,25294.99,-25294.99,2826.6000,65535.0000,2895.4000,68.8000,0.0000,0.0000,0.0000,
83,395.90,25259.19,-25259.19,2988.8000,65535.0000,3073.8000,85.0000,0.0000,0.0000,0.0000,
84,396.46,25223.50,-25223.50,2380.2000,65535.0000,2386.0000,5.8000,0.0000,0.0000,0.0000,
85,397.02,25187.93,-25187.93,2406.8000,65535.0000,2413.8000,7.0000,0.0000,0.0000,0.0000,
86,397.58,25152.47,-25152.47,2761.0000,65535.0000,2772.0000,11.0000,0.0000,0.0000,0.0000,
87,398.13,25117.12,-25117.12,2051.2000,65535.0000,2051.2000,0.0000,0.0000,0.0000,0.0000,
88,398.69,25081.89,-25081.89,2268.4000,65535.0000,2263.4000,-5.0000,0.0000,0.0000,0.0000,
89,399.25,25046.77,-25046.77,2471.0000,65535.0000,2455.2000,-15.8000,0.0000,0.0000,0.0000,
90,399.81,25011.75,-25011.75,2669.6000,65535.0000,2687.8000,18.2000,0.0000,0.0000,0.0000,
91,400.37,24976.85,-24976.85,2527.8000,65535.0000,2543.0000,15.2000,0.0000,0.0000,0.0000,
92,400.93,24942.06,-24942.06,3460.8000,65535.0000,3495.2000,34.4000,0.0000,0.0000,0.0000,
93,401.49,24907.38,-24907.38,2616.0000,65535.0000,2633.2000,17.2000,0.0000,0.0000,0.0000,
94,402.05,24872.81,-24872.81,2697.6000,65535.0000,2678.6000,-19.0000,0.0000,0.0000,0.0000,
95,402.60,24838.34,-24838.34,2612.4000,65535.0000,2606.2000,-6.2000,0.0000,0.0000,0.0000,
96,403.16,24803.99,-24803.99,2567.2000,65535.0000,2575.2000,8.0000,0.0000,0.0000,0.0000,
97,403.72,24769.74,-24769.74,2450.0000,65535.0000,2470.6000,20.6000,0.0000,0.0000,0.0000,
98,404.28,24735.60,-24735.60,2619.4000,65535.0000,2615.4000,-4.0000,0.0000,0.0000,0.0000,
99,404.83,24701.56,-24701.56,2197.2000,65535.0000,2193.6000,-3.6000,0.0000,0.0000,0.0000,
100,405.39,24667.63,-24667.63,2257.8000,65535.0000,2258.6000,0.8000,0.0000,0.0000,0.0000,
101,405.95,24633.81,-24633.81,2515.0000,65535.0000,2566.4000,51.4000,0.0000,0.0000,0.0000,
102,406.50,24600.09,-24600.09,2471.4000,65535.0000,2499.2000,27.8000,0.0000,0.0000,0.0000,
103,407.06,24566.48,-24566.48,2508.0000,65535.0000,2553.8000,45.8000,0.0000,0.0000,0.0000,
104,407.61,24532.97,-24532.97,2580.0000,65535.0000,2606.6000,26.6000,0.0000,0.0000,0.0000,
105,408.17,24499.56,-24499.56,2374.4000,65535.0000,2420.4000,46.0000,0.0000,0.0000,0.0000,
106,408.73,24466.26,-24466.26,2430.6000,65535.0000,2460.2000,29.6000,0.0000,0.0000,0.0000,
107,409.28,24433.06,-24433.06,2251.8000,65535.0000,2247.8000,-4.0000,0.0000,0.0000,0.0000,
108,409.84,24399.96,-24399.96,2329.8000,65535.0000,2340.6000,10.8000,0.0000,0.0000,0.0000,
109,410.39,24366.97,-24366.97,2828.4000,65535.0000,2844.0000,15.6000,0.0000,0.0000,0.0000,
110,410.95,24334.07,-24334.07,2830.6000,65535.0000,2840.4000,9.8000,0.0000,0.0000,0.0000,
111,411.50,24301.28,-24301.28,2585.2000,65535.0000,2667.6000,82.4000,0.0000,0.0000,0.0000,
112,412.06,24268.59,-24268.59,2349.6000,65535.0000,2382.4000,32.8000,0.0000,0.0000,0.0000,
113,412.61,24235.99,-24235.99,2588.4000,65535.0000,2637.6000,49.2000,0.0000,0.0000,0.0000,
114,413.16,24203.50,-24203.50,2642.4000,65535.0000,2652.6000,10.2000,0.0000,0.0000,0.0000,
115,413.72,24171.10,-24171.10,2618.8000,65535.0000,2710.8000,92.0000,0.0000,0.0000,0.0000,
116,414.27,24138.81,-24138.81,2168.6000,65535.0000,2174.8000,6.2000,0.0000,0.0000,0.0000,
117,414.82,24106.61,-24106.61,2320.4000,65535.0000,2388.8000,68.4000,0.0000,0.0000,0.0000,
118,415.38,24074.51,-24074.51,2950.2000,65535.0000,3019.8000,69.6000,0.0000,0.0000,0.0000,
119,415.93,24042.50,-24042.50,2409.6000,65535.0000,2479.4000,69.8000,0.0000,0.0000,0.0000,
120,416.48,24010.60,-24010.60,2320.2000,65535.0000,2412.6000,92.4000,0.0000,0.0000,0.0000,
121,417.04,23978.79,-23978.79,2789.4000,65535.0000,2798.0000,8.6000,0.0000,0.0000,0.0000,
122,417.59,23947.07,-23947.07,2210.0000,65535.0000,2232.2000,22.2000,0.0000,0.0000,0.0000,
123,418.14,23915.46,-23915.46,2500.6000,65535.0000,2535.4000,34.8000,0.0000,0.0000,0.0000,
124,418.69,23883.93,-23883.93,2655.0000,65535.0000,2724.0000,69.0000,0.0000,0.0000,0.0000,
125,419.24,23852.50,-23852.50,2635.8000,65535.0000,2675.2000,39.4000,0.0000,0.0000,0.0000,
126,419.79,23821.17,-23821.17,2634.6000,65535.0000,2664.6000,30.0000,0.0000,0.0000,0.0000,
127,420.35,23789.93,-23789.93,2560.0000,65535.0000,2677.2000,117.2000,0.0000,0.0000,0.0000,
128,420.90,23758.78,-23758.78,2005.6000,65535.0000,2072.0000,66.4000,0.0000,0.0000,0.0000,
129,421.45,23727.73,-23727.73,2424.0000,65535.0000,2450.6000,26.6000,0.0000,0.0000,0.0000,
130,422.00,23696.77,-23696.77,2428.4000,65535.0000,2491.6000,63.2000,0.0000,0.0000,0.0000,
131,422.55,23665.90,-23665.90,2465.0000,65535.0000,2470.8000,5.8000,0.0000,0.0000,0.0000,
132,423.10,23635.12,-23635.12,2442.8000,65535.0000,2464.6000,21.8000,0.0000,0.0000,0.0000,
133,423.65,23604.43,-23604.43,2456.6000,65535.0000,2479.4000,22.8000,0.0000,0.0000,0.0000,
134,424.20,23573.84,-23573.84,2252.4000,65535.0000,2294.2000,41.8000,0.0000,0.0000,0.0000,
135,424.75,23543.33,-23543.33,2956.2000,65535.0000,3045.6000,89.4000,0.0000,0.0000,0.0000,
136,425.30,23512.92,-23512.92,2501.8000,65535.0000,2573.2000,71.4000,0.0000,0.0000,0.0000,
137,425.85,23482.60,-23482.60,2121.2000,65535.0000,2197.6000,76.4000,0.0000,0.0000,0.0000,
138,426.40,23452.36,-23452.36,2384.8000,65535.0000,2465.2000,80.4000,0.0000,0.0000,0.0000,
139,426.95,23422.22,-23422.22,2680.2000,65535.0000,2773.6000,93.4000,0.0000,0.0000,0.0000,
140,427.49,23392.16,-23392.16,2192.0000,65535.0000,2299.0000,107.0000,0.0000,0.0000,0.0000,
141,428.04,23362.19,-23362.19,2367.2000,65535.0000,2468.4000,101.2000,0.0000,0.0000,0.0000,
142,428.59,23332.31,-23332.31,2222.4000,65535.0000,2301.0000,78.6000,0.0000,0.0000,0.0000,
143,429.14,23302.52,-23302.52,2574.8000,65535.0000,2634.4000,59.6000,0.0000,0.0000,0.0000,
144,429.69,23272.81,-23272.81,2703.0000,65535.0000,2785.2000,82.2000,0.0000,0.0000,0.0000,
145,430.23,23243.19,-23243.19,2218.0000,65535.0000,2269.2000,51.2000,0.0000,0.0000,0.0000,
146,430.78,23213.66,-23213.66,2337.2000,65535.0000,2404.6000,67.4000,0.0000,0.0000,0.0000,
147,431.33,23184.21,-23184.21,2534.0000,65535.0000,2652.0000,118.0000,0.0000,0.0000,0.0000,
148,431.87,23154.85,-23154.85,2622.0000,65535.0000,2708.8000,86.8000,0.0000,0.0000,0.0000,
149,432.42,23125.57,-23125.57,2827.8000,65535.0000,2908.4000,80.6000,0.0000,0.0000,0.0000,
150,432.97,23096.38,-23096.38,2449.4000,65535.0000,2526.8000,77.4000,0.0000,0.0000,0.0000,
151,433.51,23067.28,-23067.28,2380.6000,65535.0000,2416.6000,36.0000,0.0000,0.0000,0.0000,
152,434.06,23038.25,-23038.25,2858.4000,65535.0000,2930.6000,72.2000,0.0000,0.0000,0.0000,
153,434.61,23009.31,-23009.31,2457.4000,65535.0000,2581.4000,124.0000,0.0000,0.0000,0.0000,
154,435.15,22980.46,-22980.46,2606.8000,65535.0000,2759.2000,152.4000,0.0000,0.0000,0.0000,
155,435.70,22951.69,-22951.69,2442.8000,65535.0000,2542.4000,99.6000,0.0000,0.0000,0.0000,
156,436.24,22923.00,-22923.00,2880.2000,65535.0000,2995.2000,115.0000,0.0000,0.0000,0.0000,
157,436.79,22894.39,-22894.39,2839.2000,65535.0000,2978.8000,139.6000,0.0000,0.0000,0.0000,
158,437.33,22865.87,-22865.87,2272.6000,65535.0000,2414.8000,142.2000,0.0000,0.0000,0.0000,
159,437.88,22837.42,-22837.42,2105.4000,65535.0000,2197.0000,91.6000,0.0000,0.0000,0.0000,
160,438.42,22809.06,-22809.06,2331.8000,65535.0000,2416.0000,84.2000,0.0000,0.0000,0.0000,
161,438.97,22780.78,-22780.78,2785.2000,65535.0000,2899.2000,114.0000,0.0000,0.0000,0.0000,
162,439.51,22752.58,-22752.58,2597.2000,65535.0000,2700.4000,103.2000,0.0000,0.0000,0.0000,
163,440.05,22724.46,-22724.46,2404.0000,65535.0000,2497.2000,93.2000,0.0000,0.0000,0.0000,
164,440.60,22696.42,-22696.42,2385.0000,65535.0000,2487.6000,102.6000,0.0000,0.0000,0.0000,
165,441.14,22668.47,-22668.47,2563.6000,65535.0000,2654.6000,91.0000,0.0000,0.0000,0.0000,
166,441.68,22640.59,-22640.59,2663.8000,65535.0000,2755.0000,91.2000,0.0000,0.0000,0.0000,
167,442.23,22612.78,-22612.78,2113.2000,65535.0000,2190.0000,76.8000,0.0000,0.0000,0.0000,
168,442.77,22585.06,-22585.06,2335.6000,65535.0000,2425.8000,90.2000,0.0000,0.0000,0.0000,
169,443.31,22557.42,-22557.42,2166.8000,65535.0000,2284.4000,117.6000,0.0000,0.0000,0.0000,
170,443.86,22529.85,-22529.85,2388.8000,65535.0000,2512.0000,123.2000,0.0000,0.0000,0.0000,
171,444.40,22502.36,-22502.36,2384.6000,65535.0000,2493.8000,109.2000,0.0000,0.0000,0.0000,
172,444.94,22474.95,-22474.95,2658.6000,65535.0000,2829.6000,171.0000,0.0000,0.0000,0.0000,
173,445.48,22447.62,-22447.62,2451.6000,65535.0000,2556.8000,105.2000,0.0000,0.0000,0.0000,
174,446.02,22420.36,-22420.36,2749.8000,65535.0000,2859.0000,109.2000,0.0000,0.0000,0.0000,
175,446.56,22393.18,-22393.18,2930.6000,65535.0000,3086.6000,156.0000,0.0000,0.0000,0.0000,
176,447.11,22366.08,-22366.08,2272.8000,65535.0000,2396.4000,123.6000,0.0000,0.0000,0.0000,
177,447.65,22339.05,-22339.05,2385.0000,65535.0000,2497.4000,112.4000,0.0000,0.0000,0.0000,
178,448.19,22312.10,-22312.10,2246.8000,65535.0000,2360.2000,113.4000,0.0000,0.0000,0.0000,
179,448.73,22285.22,-22285.22,2715.2000,65535.0000,2853.2000,138.0000,0.0000,0.0000,0.0000,
180,449.27,22258.42,-22258.42,2419.0000,65535.0000,2543.2000,124.2000,0.0000,0.0000,0.0000,
181,449.81,22231.69,-22231.69,2219.4000,65535.0000,2319.6000,100.2000,0.0000,0.0000,0.0000,
182,450.35,22205.03,-22205.03,2551.6000,65535.0000,2643.4000,91.8000,0.0000,0.0000,0.0000,
183,450.89,22178.45,-22178.45,2544.2000,65535.0000,2676.8000,132.6000,0.0000,0.0000,0.0000,
184,451.43,22151.95,-22151.95,2222.0000,65535.0000,2294.8000,72.8000,0.0000,0.0000,0.0000,
185,451.97,22125.51,-22125.51,2881.4000,65535.0000,3024.6000,143.2000,0.0000,0.0000,0.0000,
186,452.51,22099.15,-22099.15,2506.0000,65535.0000,2638.4000,132.4000,0.0000,0.0000,0.0000,
187,453.04,22072.87,-22072.87,2445.2000,65535.0000,2557.2000,112.0000,0.0000,0.0000,0.0000,
188,453.58,22046.65,-22046.65,2166.0000,65535.0000,2305.4000,139.4000,0.0000,0.0000,0.0000,
189,454.12,22020.51,-22020.51,3023.8000,65535.0000,3171.8000,148.0000,0.0000,0.0000,0.0000,
190,454.66,21994.44,-21994.44,2353.8000,65535.0000,2526.6000,172.8000,0.0000,0.0000,0.0000,
191,455.20,21968.44,-21968.44,2607.4000,65535.0000,2810.2000,202.8000,0.0000,0.0000,0.0000,
192,455.74,21942.51,-21942.51,2574.6000,65535.0000,2736.6000,162.0000,0.0000,0.0000,0.0000,
193,456.27,21916.66,-21916.66,2651.6000,65535.0000,2803.4000,151.8000,0.0000,0.0000,0.0000,
194,456.81,21890.87,-21890.87,3237.0000,65535.0000,3406.0000,169.0000,0.0000,0.0000,0.0000,
195,457.35,21865.16,-21865.16,2516.8000,65535.0000,2632.2000,115.4000,0.0000,0.0000,0.0000,
196,457.89,21839.51,-21839.51,2358.8000,65535.0000,2465.2000,106.4000,0.0000,0.0000,0.0000,
197,458.42,21813.94,-21813.94,3314.0000,65535.0000,3542.2000,228.2000,0.0000,0.0000,0.0000,
198,458.96,21788.43,-21788.43,2690.2000,65535.0000,2925.6000,235.4000,0.0000,0.0000,0.0000,
199,459.50,21763.00,-21763.00,2897.2000,65535.0000,3087.2000,190.0000,0.0000,0.0000,0.0000,
200,460.03,21737.63,-21737.63,2763.0000,65535.0000,2991.4000,228.4000,0.0000,0.0000,0.0000,
201,460.57,21712.33,-21712.33,2472.8000,65535.0000,2631.8000,159.0000,0.0000,0.0000,0.0000,
202,461.10,21687.10,-21687.10,2969.4000,65535.0000,3177.4000,208.0000,0.0000,0.0000,0.0000,
203,461.64,21661.94,-21661.94,2202.2000,65535.0000,2330.2000,128.0000,0.0000,0.0000,0.0000,
204,462.17,21636.85,-21636.85,2170.8000,65535.0000,2339.2000,168.4000,0.0000,0.0000,0.0000,
205,462.71,21611.82,-21611.82,2687.8000,65535.0000,2867.8000,180.0000,0.0000,0.0000,0.0000,
206,463.24,21586.86,-21586.86,2679.2000,65535.0000,2895.4000,216.2000,0.0000,0.0000,0.0000,
207,463.78,21561.97,-21561.97,2922.8000,65535.0000,3127.2000,204.4000,0.0000,0.0000,0.0000,
208,464.31,21537.15,-21537.15,2397.2000,65535.0000,2559.8000,162.6000,0.0000,0.0000,0.0000,
209,464.85,21512.39,-21512.39,2606.2000,65535.0000,2752.4000,146.2000,0.0000,0.0000,0.0000,
210,465.38,21487.70,-21487.70,2317.2000,65535.0000,2497.2000,180.0000,0.0000,0.0000,0.0000,
211,465.92,21463.07,-21463.07,2311.0000,65535.0000,2536.8000,225.8000,0.0000,0.0000,0.0000,
212,466.45,21438.51,-21438.51,3109.0000,65535.0000,3344.6000,235.6000,0.0000,0.0000,0.0000,
213,466.98,21414.02,-21414.02,4123.2000,65535.0000,4364.4000,241.2000,0.0000,0.0000,0.0000,
214,467.52,21389.59,-21389.59,2666.4000,65535.0000,2943.6000,277.2000,0.0000,0.0000,0.0000,
215,468.05,21365.23,-21365.23,2505.2000,65535.0000,2747.0000,241.8000,0.0000,0.0000,0.0000,
216,468.58,21340.93,-21340.93,2218.0000,65535.0000,2419.6000,201.6000,0.0000,0.0000,0.0000,
217,469.12,21316.70,-21316.70,2501.2000,65535.0000,2739.8000,238.6000,0.0000,0.0000,0.0000,
218,469.65,21292.53,-21292.53,2950.0000,65535.0000,3195.4000,245.4000,0.0000,0.0000,0.0000,
219,470.18,21268.42,-21268.42,2580.6000,65535.0000,2793.2000,212.6000,0.0000,0.0000,0.0000,
220,470.71,21244.38,-21244.38,2302.6000,65535.0000,2540.8000,238.2000,0.0000,0.0000,0.0000,
221,471.24,21220.40,-21220.40,2199.4000,65535.0000,2466.4000,267.0000,0.0000,0.0000,0.0000,
222,471.78,21196.49,-21196.49,2285.8000,65535.0000,2556.4000,270.6000,0.0000,0.0000,0.0000,
223,472.31,21172.64,-21172.64,2640.0000,65535.0000,2902.0000,262.0000,0.0000,0.0000,0.0000,
224,472.84,21148.85,-21148.85,2269.0000,65535.0000,2533.4000,264.4000,0.0000,0.0000,0.0000,
225,473.37,21125.12,-21125.12,2741.2000,65535.0000,3017.6000,276.4000,0.0000,0.0000,0.0000,
226,473.90,21101.46,-21101.46,2449.6000,65535.0000,2699.4000,249.8000,0.0000,0.0000,0.0000,
227,474.43,21077.86,-21077.86,2532.4000,65535.0000,2815.6000,283.2000,0.0000,0.0000,0.0000,
228,474.96,21054.32,-21054.32,2588.0000,65535.0000,2891.4000,303.4000,0.0000,0.0000,0.0000,
229,475.49,21030.84,-21030.84,2458.8000,65535.0000,2717.2000,258.4000,0.0000,0.0000,0.0000,
230,476.02,21007.43,-21007.43,2879.8000,65535.0000,2961.0000,81.2000,0.0000,0.0000,0.0000,
231,476.55,20984.07,-20984.07,2251.4000,65535.0000,2546.8000,295.4000,0.0000,0.0000,0.0000,
232,477.08,20960.78,-20960.78,2194.2000,65535.0000,2483.6000,289.4000,0.0000,0.0000,0.0000,
233,477.61,20937.54,-20937.54,2362.8000,65535.0000,2742.0000,379.2000,0.0000,0.0000,0.0000,
234,478.14,20914.37,-20914.37,2443.2000,65535.0000,2778.0000,334.8000,0.0000,0.0000,0.0000,
235,478.67,20891.26,-20891.26,2343.0000,65535.0000,2679.0000,336.0000,0.0000,0.0000,0.0000,
236,479.20,20868.20,-20868.20,2703.8000,65535.0000,3037.6000,333.8000,0.0000,0.0000,0.0000,
237,479.73,20845.21,-20845.21,2343.4000,65535.0000,2693.4000,350.0000,0.0000,0.0000,0.0000,
238,480.25,20822.28,-20822.28,2114.0000,65535.0000,2509.8000,395.8000,0.0000,0.0000,0.0000,
239,480.78,20799.40,-20799.40,2382.2000,65535.0000,2809.4000,427.2000,0.0000,0.0000,0.0000,
240,481.31,20776.59,-20776.59,2595.8000,65535.0000,3031.2000,435.4000,0.0000,0.0000,0.0000,
241,481.84,20753.83,-20753.83,2510.2000,65535.0000,2924.2000,414.0000,0.0000,0.0000,0.0000,
242,482.37,20731.14,-20731.14,2248.4000,65535.0000,2646.0000,397.6000,0.0000,0.0000,0.0000,
243,482.89,20708.50,-20708.50,2630.4000,65535.0000,3037.0000,406.6000,0.0000,0.0000,0.0000,
244,483.42,20685.92,-20685.92,2400.8000,65535.0000,2818.8000,418.0000,0.0000,0.0000,0.0000,
245,483.95,20663.40,-20663.40,2489.8000,65535.0000,2963.4000,473.6000,0.0000,0.0000,0.0000,
246,484.47,20640.93,-20640.93,2702.6000,65535.0000,3124.6000,422.0000,0.0000,0.0000,0.0000,
247,485.00,20618.52,-20618.52,2390.6000,65535.0000,2839.4000,448.8000,0.0000,0.0000,0.0000,
248,485.53,20596.17,-20596.17,2929.2000,65535.0000,3400.4000,471.2000,0.0000,0.0000,0.0000,
249,486.05,20573.88,-20573.88,2801.6000,65535.0000,3323.0000,521.4000,0.0000,0.0000,0.0000,
250,486.58,20551.65,-20551.65,2590.2000,65535.0000,3135.8000,545.6000,0.0000,0.0000,0.0000,
251,487.10,20529.47,-20529.47,2808.2000,65535.0000,3413.6000,605.4000,0.0000,0.0000,0.0000,
252,487.63,20507.35,-20507.35,2229.4000,65535.0000,2785.6000,556.2000,0.0000,0.0000,0.0000,
253,488.16,20485.28,-20485.28,2667.4000,65535.0000,3218.2000,550.8000,0.0000,0.0000,0.0000,
254,488.68,20463.27,-20463.27,2498.8000,65535.0000,3062.8000,564.0000,0.0000,0.0000,0.0000,
255,489.21,20441.32,-20441.32,2819.6000,65535.0000,3397.0000,577.4000,0.0000,0.0000,0.0000,
256,489.73,20419.42,-20419.42,2274.8000,65535.0000,2871.4000,596.6000,0.0000,0.0000,0.0000,
257,490.25,20397.57,-20397.57,2591.6000,65535.0000,3160.0000,568.4000,0.0000,0.0000,0.0000,
258,490.78,20375.79,-20375.79,2894.4000,65535.0000,3487.8000,593.4000,0.0000,0.0000,0.0000,
259,491.30,20354.05,-20354.05,2454.0000,65535.0000,3017.2000,563.2000,0.0000,0.0000,0.0000,
260,491.83,20332.38,-20332.38,2461.6000,65535.0000,3063.8000,602.2000,0.0000,0.0000,0.0000,
261,492.35,20310.75,-20310.75,2177.6000,65535.0000,2750.2000,572.6000,0.0000,0.0000,0.0000,
262,492.87,20289.19,-20289.19,2815.0000,65535.0000,3416.8000,601.8000,0.0000,0.0000,0.0000,
263,493.40,20267.67,-20267.67,3291.2000,65535.0000,3894.4000,603.2000,0.0000,0.0000,0.0000,
264,493.92,20246.21,-20246.21,2514.8000,65535.0000,3112.8000,598.0000,0.0000,0.0000,0.0000,
265,494.44,20224.80,-20224.80,2341.4000,65535.0000,2968.8000,627.4000,0.0000,0.0000,0.0000,
266,494.96,20203.45,-20203.45,2021.2000,65535.0000,2645.6000,624.4000,0.0000,0.0000,0.0000,
267,495.49,20182.15,-20182.15,2247.0000,65535.0000,2879.2000,632.2000,0.0000,0.0000,0.0000,
268,496.01,20160.91,-20160.91,2217.6000,65535.0000,2834.2000,616.6000,0.0000,0.0000,0.0000,
269,496.53,20139.71,-20139.71,2228.2000,65535.0000,2825.4000,597.2000,0.0000,0.0000,0.0000,
270,497.05,20118.57,-20118.57,2799.6000,65535.0000,3460.4000,660.8000,0.0000,0.0000,0.0000,
271,497.57,20097.49,-20097.49,2666.6000,65535.0000,3337.0000,670.4000,0.0000,0.0000,0.0000,
272,498.10,20076.45,-20076.45,2471.2000,65535.0000,3128.0000,656.8000,0.0000,0.0000,0.0000,
273,498.62,20055.47,-20055.47,2631.4000,65535.0000,3298.4000,667.0000,0.0000,0.0000,0.0000,
274,499.14,20034.54,-20034.54,2030.6000,65535.0000,2705.6000,675.0000,0.0000,0.0000,0.0000,
275,499.66,20013.66,-20013.66,3872.2000,65535.0000,4630.8000,758.6000,0.0000,0.0000,0.0000,
276,500.18,19992.83,-19992.83,2654.6000,65535.0000,3334.2000,679.6000,0.0000,0.0000,0.0000,
277,500.70,19972.06,-19972.06,2319.2000,65535.0000,3016.8000,697.6000,0.0000,0.0000,0.0000,
278,501.22,19951.34,-19951.34,2338.6000,65535.0000,3099.4000,760.8000,0.0000,0.0000,0.0000,
279,501.74,19930.66,-19930.66,2447.0000,65535.0000,3088.6000,641.6000,0.0000,0.0000,0.0000,
280,502.26,19910.04,-19910.04,2345.8000,65535.0000,3005.0000,659.2000,0.0000,0.0000,0.0000,
281,502.78,19889.47,-19889.47,2564.4000,65535.0000,3269.8000,705.4000,0.0000,0.0000,0.0000,
282,503.30,19868.95,-19868.95,2539.2000,65535.0000,3288.2000,749.0000,0.0000,0.0000,0.0000,
283,503.82,19848.48,-19848.48,2536.2000,65535.0000,3278.6000,742.4000,0.0000,0.0000,0.0000,
284,504.34,19828.06,-19828.06,2315.0000,65535.0000,3043.6000,728.6000,0.0000,0.0000,0.0000,
285,504.85,19807.69,-19807.69,2242.0000,65535.0000,2979.4000,737.4000,0.0000,0.0000,0.0000,
286,505.37,19787.38,-19787.38,2283.8000,65535.0000,3002.0000,718.2000,0.0000,0.0000,0.0000,
287,505.89,19767.11,-19767.11,2247.4000,65535.0000,3018.0000,770.6000,0.0000,0.0000,0.0000,
288,506.41,19746.89,-19746.89,1959.6000,65535.0000,2714.6000,755.0000,0.0000,0.0000,0.0000,
289,506.93,19726.72,-19726.72,2138.6000,65535.0000,2930.2000,791.6000,0.0000,0.0000,0.0000,
290,507.44,19706.59,-19706.59,2356.4000,65535.0000,3153.8000,797.4000,0.0000,0.0000,0.0000,
291,507.96,19686.52,-19686.52,2054.0000,65535.0000,2830.8000,776.8000,0.0000,0.0000,0.0000,
292,508.48,19666.50,-19666.50,2148.6000,65535.0000,2912.2000,763.6000,0.0000,0.0000,0.0000,
293,509.00,19646.52,-19646.52,2188.6000,65535.0000,2975.8000,787.2000,0.0000,0.0000,0.0000,
294,509.51,19626.60,-19626.60,2329.8000,65535.0000,3118.4000,788.6000,0.0000,0.0000,0.0000,
295,510.03,19606.72,-19606.72,2733.0000,65535.0000,3541.2000,808.2000,0.0000,0.0000,0.0000,
296,510.55,19586.89,-19586.89,2148.6000,65535.0000,2942.0000,793.4000,0.0000,0.0000,0.0000,
297,511.06,19567.11,-19567.11,2641.8000,65535.0000,3490.8000,849.0000,0.0000,0.0000,0.0000,
298,511.58,19547.38,-19547.38,2176.6000,65535.0000,2981.8000,805.2000,0.0000,0.0000,0.0000,
299,512.09,19527.69,-19527.69,2340.6000,65535.0000,3205.8000,865.2000,0.0000,0.0000,0.0000,
300,512.61,19508.05,-19508.05,3039.4000,65535.0000,3928.2000,888.8000,0.0000,0.0000,0.0000,
301,513.12,19488.46,-19488.46,3221.0000,65535.0000,4109.6000,888.6000,0.0000,0.0000,0.0000,
302,513.64,19468.92,-19468.92,2728.0000,65535.0000,3600.6000,872.6000,0.0000,0.0000,0.0000,
303,514.15,19449.42,-19449.42,2308.2000,65535.0000,3187.0000,878.8000,0.0000,0.0000,0.0000,
304,514.67,19429.97,-19429.97,2089.0000,65535.0000,2987.0000,898.0000,0.0000,0.0000,0.0000,
305,515.18,19410.56,-19410.56,2234.2000,65535.0000,3175.2000,941.0000,0.0000,0.0000,0.0000,
306,515.70,19391.21,-19391.21,2421.4000,65535.0000,3352.2000,930.8000,0.0000,0.0000,0.0000,
307,516.21,19371.90,-19371.90,2655.6000,65535.0000,3624.6000,969.0000,0.0000,0.0000,0.0000,
308,516.73,19352.63,-19352.63,2581.0000,65535.0000,3561.8000,980.8000,0.0000,0.0000,0.0000,
309,517.24,19333.41,-19333.41,2075.4000,65535.0000,2992.4000,917.0000,0.0000,0.0000,0.0000,
310,517.75,19314.24,-19314.24,2101.8000,65535.0000,3105.2000,1003.4000,0.0000,0.0000,0.0000,
311,518.27,19295.11,-19295.11,3254.6000,65535.0000,4277.6000,1023.0000,0.0000,0.0000,0.0000,
312,518.78,19276.03,-19276.03,2128.8000,65535.0000,3129.6000,1000.8000,0.0000,0.0000,0.0000,
313,519.29,19257.00,-19257.00,2336.4000,65535.0000,3360.2000,1023.8000,0.0000,0.0000,0.0000,
314,519.80,19238.01,-19238.01,2471.8000,65535.0000,3503.0000,1031.2000,0.0000,0.0000,0.0000,
315,520.32,19219.06,-19219.06,1943.8000,65535.0000,2999.8000,1056.0000,0.0000,0.0000,0.0000,
316,520.83,19200.16,-19200.16,2257.8000,65535.0000,3335.4000,1077.6000,0.0000,0.0000,0.0000,
317,521.34,19181.30,-19181.30,2636.0000,65535.0000,3717.2000,1081.2000,0.0000,0.0000,0.0000,
318,521.85,19162.49,-19162.49,2283.0000,65535.0000,3355.2000,1072.2000,0.0000,0.0000,0.0000,
319,522.36,19143.73,-19143.73,2926.6000,65535.0000,4023.8000,1097.2000,0.0000,0.0000,0.0000,
320,522.88,19125.00,-19125.00,2330.2000,65535.0000,3423.0000,1092.8000,0.0000,0.0000,0.0000,
321,523.39,19106.33,-19106.33,2530.0000,65535.0000,3656.0000,1126.0000,0.0000,0.0000,0.0000,
322,523.90,19087.69,-19087.69,2755.6000,65535.0000,3867.6000,1112.0000,0.0000,0.0000,0.0000,
323,524.41,19069.10,-19069.10,2601.8000,65535.0000,3731.2000,1129.4000,0.0000,0.0000,0.0000,
324,524.92,19050.55,-19050.55,2357.0000,65535.0000,3478.6000,1121.6000,0.0000,0.0000,0.0000,
325,525.43,19032.05,-19032.05,2835.0000,65535.0000,3947.4000,1112.4000,0.0000,0.0000,0.0000,
326,525.94,19013.59,-19013.59,2173.8000,65535.0000,3324.6000,1150.8000,0.0000,0.0000,0.0000,
327,526.45,18995.17,-18995.17,2296.2000,65535.0000,3438.0000,1141.8000,0.0000,0.0000,0.0000,
328,526.96,18976.80,-18976.80,2032.4000,65535.0000,3236.4000,1204.0000,0.0000,0.0000,0.0000,
329,527.47,18958.47,-18958.47,2591.0000,65535.0000,3797.2000,1206.2000,0.0000,0.0000,0.0000,
330,527.98,18940.18,-18940.18,1968.2000,65535.0000,3175.6000,1207.4000,0.0000,0.0000,0.0000,
331,528.49,18921.94,-18921.94,2259.6000,65535.0000,3451.6000,1192.0000,0.0000,0.0000,0.0000,
332,529.00,18903.74,-18903.74,2149.6000,65535.0000,3368.8000,1219.2000,0.0000,0.0000,0.0000,
333,529.50,18885.58,-18885.58,2164.0000,65535.0000,3382.8000,1218.8000,0.0000,0.0000,0.0000,
334,530.01,18867.46,-18867.46,2061.8000,65535.0000,3279.4000,1217.6000,0.0000,0.0000,0.0000,
335,530.52,18849.38,-18849.38,2291.8000,65535.0000,3476.8000,1185.0000,0.0000,0.0000,0.0000,
336,531.03,18831.35,-18831.35,2392.8000,65535.0000,3636.2000,1243.4000,0.0000,0.0000,0.0000,
337,531.54,18813.36,-18813.36,2732.8000,65535.0000,3963.0000,1230.2000,0.0000,0.0000,0.0000,
338,532.04,18795.41,-18795.41,2453.8000,65535.0000,3686.4000,1232.6000,0.0000,0.0000,0.0000,
339,532.55,18777.50,-18777.50,2243.2000,65535.0000,3524.6000,1281.4000,0.0000,0.0000,0.0000,
340,533.06,18759.63,-18759.63,2378.8000,65535.0000,3613.2000,1234.4000,0.0000,0.0000,0.0000,
341,533.57,18741.80,-18741.80,2649.2000,65535.0000,3947.2000,1298.0000,0.0000,0.0000,0.0000,
342,534.07,18724.02,-18724.02,2048.8000,65535.0000,3307.8000,1259.0000,0.0000,0.0000,0.0000,
343,534.58,18706.28,-18706.28,2163.2000,65535.0000,3408.0000,1244.8000,0.0000,0.0000,0.0000,
344,535.09,18688.57,-18688.57,2283.0000,65535.0000,3584.4000,1301.4000,0.0000,0.0000,0.0000,
345,535.59,18670.91,-18670.91,2811.6000,65535.0000,4078.6000,1267.0000,0.0000,0.0000,0.0000,
346,536.10,18653.29,-18653.29,3257.2000,65535.0000,4544.6000,1287.4000,0.0000,0.0000,0.0000,
347,536.60,18635.71,-18635.71,2315.2000,65535.0000,3609.6000,1294.4000,0.0000,0.0000,0.0000,
348,537.11,18618.17,-18618.17,2019.0000,65535.0000,3333.4000,1314.4000,0.0000,0.0000,0.0000,
349,537.62,18600.67,-18600.67,2489.0000,65535.0000,3823.8000,1334.8000,0.0000,0.0000,0.0000,
350,538.12,18583.21,-18583.21,2119.2000,65535.0000,3433.2000,1314.0000,0.0000,0.0000,0.0000,
351,538.63,18565.78,-18565.78,2059.8000,65535.0000,3387.0000,1327.2000,0.0000,0.0000,0.0000,
352,539.13,18548.40,-18548.40,2540.6000,65535.0000,3931.6000,1391.0000,0.0000,0.0000,0.0000,
353,539.63,18531.06,-18531.06,2145.0000,65535.0000,3504.0000,1359.0000,0.0000,0.0000,0.0000,
354,540.14,18513.76,-18513.76,2210.0000,65535.0000,3563.0000,1353.0000,0.0000,0.0000,0.0000,
355,540.64,18496.50,-18496.50,2343.6000,65535.0000,3704.8000,1361.2000,0.0000,0.0000,0.0000,
356,541.15,18479.28,-18479.28,2450.0000,65535.0000,3851.2000,1401.2000,0.0000,0.0000,0.0000,
357,541.65,18462.09,-18462.09,2127.2000,65535.0000,3522.2000,1395.0000,0.0000,0.0000,0.0000,
358,542.15,18444.95,-18444.95,2125.6000,65535.0000,3533.0000,1407.4000,0.0000,0.0000,0.0000,
359,542.66,18427.84,-18427.84,2497.4000,65535.0000,4002.6000,1505.2000,0.0000,0.0000,0.0000,
360,543.16,18410.77,-18410.77,2013.4000,65535.0000,3494.8000,1481.4000,0.0000,0.0000,0.0000,
361,543.66,18393.74,-18393.74,2633.6000,65535.0000,4200.4000,1566.8000,0.0000,0.0000,0.0000,
362,544.17,18376.75,-18376.75,2524.8000,65535.0000,4140.6000,1615.8000,0.0000,0.0000,0.0000,
363,544.67,18359.80,-18359.80,2947.2000,65535.0000,4561.4000,1614.2000,0.0000,0.0000,0.0000,
364,545.17,18342.89,-18342.89,2339.8000,65535.0000,3893.8000,1554.0000,0.0000,0.0000,0.0000,
365,545.67,18326.01,-18326.01,2358.6000,65535.0000,3915.6000,1557.0000,0.0000,0.0000,0.0000,
366,546.17,18309.17,-18309.17,2409.2000,65535.0000,3942.0000,1532.8000,0.0000,0.0000,0.0000,
367,546.68,18292.37,-18292.37,2289.0000,65535.0000,3876.8000,1587.8000,0.0000,0.0000,0.0000,
368,547.18,18275.61,-18275.61,2918.6000,65535.0000,4593.2000,1674.6000,0.0000,0.0000,0.0000,
369,547.68,18258.89,-18258.89,2210.2000,65535.0000,3904.8000,1694.6000,0.0000,0.0000,0.0000,
370,548.18,18242.20,-18242.20,2267.8000,65535.0000,3790.8000,1523.0000,0.0000,0.0000,0.0000,
371,548.68,18225.55,-18225.55,2023.2000,65535.0000,3548.8000,1525.6000,0.0000,0.0000,0.0000,
372,549.18,18208.94,-18208.94,2609.4000,65535.0000,4127.4000,1518.0000,0.0000,0.0000,0.0000,
373,549.68,18192.37,-18192.37,2136.2000,65535.0000,3618.6000,1482.4000,0.0000,0.0000,0.0000,
374,550.18,18175.83,-18175.83,2707.6000,65535.0000,4240.4000,1532.8000,0.0000,0.0000,0.0000,
375,550.68,18159.33,-18159.33,2230.8000,65535.0000,3804.2000,1573.4000,0.0000,0.0000,0.0000,
376,551.18,18142.86,-18142.86,2202.4000,65535.0000,3751.0000,1548.6000,0.0000,0.0000,0.0000,
377,551.68,18126.43,-18126.43,2397.0000,65535.0000,3976.2000,1579.2000,0.0000,0.0000,0.0000,
378,552.18,18110.04,-18110.04,2640.0000,65535.0000,4201.4000,1561.4000,0.0000,0.0000,0.0000,
379,552.68,18093.69,-18093.69,2644.4000,65535.0000,4274.8000,1630.4000,0.0000,0.0000,0.0000,
380,553.18,18077.37,-18077.37,2560.4000,65535.0000,4162.2000,1601.8000,0.0000,0.0000,0.0000,
381,553.68,18061.09,-18061.09,2269.2000,65535.0000,3937.8000,1668.6000,0.0000,0.0000,0.0000,
382,554.18,18044.84,-18044.84,2197.0000,65535.0000,3796.8000,1599.8000,0.0000,0.0000,0.0000,
383,554.67,18028.63,-18028.63,2285.0000,65535.0000,3923.4000,1638.4000,0.0000,0.0000,0.0000,
384,555.17,18012.46,-18012.46,2382.4000,65535.0000,4019.0000,1636.6000,0.0000,0.0000,0.0000,
385,555.67,17996.32,-17996.32,2093.6000,65535.0000,3717.8000,1624.2000,0.0000,0.0000,0.0000,
386,556.17,17980.22,-17980.22,2366.2000,65535.0000,4010.8000,1644.6000,0.0000,0.0000,0.0000,
387,556.66,17964.15,-17964.15,2493.2000,65535.0000,4182.2000,1689.0000,0.0000,0.0000,0.0000,
388,557.16,17948.12,-17948.12,2167.2000,65535.0000,3862.2000,1695.0000,0.0000,0.0000,0.0000,
389,557.66,17932.12,-17932.12,2646.6000,65535.0000,4344.6000,1698.0000,0.0000,0.0000,0.0000,
390,558.16,17916.16,-17916.16,2070.8000,65535.0000,3750.6000,1679.8000,0.0000,0.0000,0.0000,
391,558.65,17900.23,-17900.23,2317.2000,65535.0000,4091.0000,1773.8000,0.0000,0.0000,0.0000,
392,559.15,17884.34,-17884.34,2253.6000,65535.0000,4006.2000,1752.6000,0.0000,0.0000,0.0000,
393,559.64,17868.48,-17868.48,2152.8000,65535.0000,3929.2000,1776.4000,0.0000,0.0000,0.0000,
394,560.14,17852.66,-17852.66,2135.2000,65535.0000,3840.6000,1705.4000,0.0000,0.0000,0.0000,
395,560.64,17836.87,-17836.87,2789.6000,65535.0000,4560.2000,1770.6000,0.0000,0.0000,0.0000,
396,561.13,17821.12,-17821.12,2379.0000,65535.0000,4192.6000,1813.6000,0.0000,0.0000,0.0000,
397,561.63,17805.40,-17805.40,2113.2000,65535.0000,3877.6000,1764.4000,0.0000,0.0000,0.0000,
398,562.12,17789.72,-17789.72,2190.2000,65535.0000,4021.2000,1831.0000,0.0000,0.0000,0.0000,
399,562.62,17774.07,-17774.07,2581.6000,65535.0000,4429.4000,1847.8000,0.0000,0.0000,0.0000,
400,563.11,17758.45,-17758.45,2811.2000,65535.0000,4684.2000,1873.0000,0.0000,0.0000,0.0000,
401,563.61,17742.87,-17742.87,2192.8000,65535.0000,4077.8000,1885.0000,0.0000,0.0000,0.0000,
402,564.10,17727.32,-17727.32,2080.4000,65535.0000,3987.0000,1906.6000,0.0000,0.0000,0.0000,
403,564.60,17711.81,-17711.81,2611.6000,65535.0000,4508.4000,1896.8000,0.0000,0.0000,0.0000,
404,565.09,17696.33,-17696.33,2696.0000,65535.0000,4541.0000,1845.0000,0.0000,0.0000,0.0000,
405,565.58,17680.88,-17680.88,3981.2000,65535.0000,5923.6000,1942.4000,0.0000,0.0000,0.0000,
406,566.08,17665.47,-17665.47,2136.6000,65535.0000,4087.8000,1951.2000,0.0000,0.0000,0.0000,
407,566.57,17650.09,-17650.09,2025.6000,65535.0000,3979.0000,1953.4000,0.0000,0.0000,0.0000,
408,567.06,17634.74,-17634.74,2287.0000,65535.0000,4200.2000,1913.2000,0.0000,0.0000,0.0000,
409,567.56,17619.42,-17619.42,2495.2000,65535.0000,4444.2000,1949.0000,0.0000,0.0000,0.0000,
410,568.05,17604.14,-17604.14,2554.4000,65535.0000,4544.2000,1989.8000,0.0000,0.0000,0.0000,
411,568.54,17588.90,-17588.90,2619.8000,65535.0000,4708.4000,2088.6000,0.0000,0.0000,0.0000,
412,569.03,17573.68,-17573.68,2902.2000,65535.0000,4967.6000,2065.4000,0.0000,0.0000,0.0000,
413,569.52,17558.50,-17558.50,2823.8000,65535.0000,4848.8000,2025.0000,0.0000,0.0000,0.0000,
414,570.02,17543.35,-17543.35,2431.2000,65535.0000,4442.2000,2011.0000,0.0000,0.0000,0.0000,
415,570.51,17528.23,-17528.23,2463.2000,65535.0000,4509.2000,2046.0000,0.0000,0.0000,0.0000,
416,571.00,17513.15,-17513.15,2583.6000,65535.0000,4647.8000,2064.2000,0.0000,0.0000,0.0000,
417,571.49,17498.09,-17498.09,2298.8000,65535.0000,4341.2000,2042.4000,0.0000,0.0000,0.0000,
418,571.98,17483.07,-17483.07,2368.8000,65535.0000,4466.0000,2097.2000,0.0000,0.0000,0.0000,
419,572.47,17468.08,-17468.08,2552.2000,65535.0000,4607.6000,2055.4000,0.0000,0.0000,0.0000,
420,572.96,17453.13,-17453.13,2234.0000,65535.0000,4332.6000,2098.6000,0.0000,0.0000,0.0000,
421,573.45,17438.20,-17438.20,2290.8000,65535.0000,4387.8000,2097.0000,0.0000,0.0000,0.0000,
422,573.94,17423.31,-17423.31,2502.6000,65535.0000,4596.2000,2093.6000,0.0000,0.0000,0.0000,
423,574.43,17408.45,-17408.45,2591.4000,65535.0000,4741.8000,2150.4000,0.0000,0.0000,0.0000,
424,574.92,17393.62,-17393.62,2053.4000,65535.0000,4171.4000,2118.0000,0.0000,0.0000,0.0000,
425,575.41,17378.82,-17378.82,2137.6000,65535.0000,4243.2000,2105.6000,0.0000,0.0000,0.0000,
426,575.90,17364.06,-17364.06,2332.2000,65535.0000,4437.8000,2105.6000,0.0000,0.0000,0.0000,
427,576.39,17349.32,-17349.32,2553.0000,65535.0000,4671.2000,2118.2000,0.0000,0.0000,0.0000,
428,576.88,17334.62,-17334.62,2374.6000,65535.0000,4520.4000,2145.8000,0.0000,0.0000,0.0000,
429,577.37,17319.95,-17319.95,2809.0000,65535.0000,4940.6000,2131.6000,0.0000,0.0000,0.0000,
430,577.86,17305.31,-17305.31,2231.0000,65535.0000,4391.8000,2160.8000,0.0000,0.0000,0.0000,
431,578.35,17290.70,-17290.70,2615.4000,65535.0000,4809.4000,2194.0000,0.0000,0.0000,0.0000,
432,578.83,17276.12,-17276.12,2077.2000,65535.0000,4224.6000,2147.4000,0.0000,0.0000,0.0000,
433,579.32,17261.57,-17261.57,2104.6000,65535.0000,4252.2000,2147.6000,0.0000,0.0000,0.0000,
434,579.81,17247.05,-17247.05,2531.6000,65535.0000,4775.2000,2243.6000,0.0000,0.0000,0.0000,
435,580.30,17232.56,-17232.56,2234.0000,65535.0000,4484.2000,2250.2000,0.0000,0.0000,0.0000,
436,580.78,17218.10,-17218.10,2502.8000,65535.0000,4738.0000,2235.2000,0.0000,0.0000,0.0000,
437,581.27,17203.68,-17203.68,2249.4000,65535.0000,4434.4000,2185.0000,0.0000,0.0000,0.0000,
438,581.76,17189.28,-17189.28,2231.8000,65535.0000,4422.0000,2190.2000,0.0000,0.0000,0.0000,
439,582.24,17174.92,-17174.92,2440.8000,65535.0000,4706.4000,2265.6000,0.0000,0.0000,0.0000,
440,582.73,17160.58,-17160.58,2597.8000,65535.0000,4878.6000,2280.8000,0.0000,0.0000,0.0000,
441,583.22,17146.27,-17146.27,2576.8000,65535.0000,4763.4000,2186.6000,0.0000,0.0000,0.0000,
442,583.70,17132.00,-17132.00,2593.4000,65535.0000,4857.6000,2264.2000,0.0000,0.0000,0.0000,
443,584.19,17117.75,-17117.75,2404.0000,65535.0000,4710.8000,2306.8000,0.0000,0.0000,0.0000,
444,584.67,17103.54,-17103.54,2276.4000,65535.0000,4496.2000,2219.8000,0.0000,0.0000,0.0000,
445,585.16,17089.35,-17089.35,2662.8000,65535.0000,4994.4000,2331.6000,0.0000,0.0000,0.0000,
446,585.64,17075.19,-17075.19,2251.6000,65535.0000,4448.0000,2196.4000,0.0000,0.0000,0.0000,
447,586.13,17061.07,-17061.07,2250.0000,65535.0000,4491.6000,2241.6000,0.0000,0.0000,0.0000,
448,586.61,17046.97,-17046.97,2590.4000,65535.0000,4905.0000,2314.6000,0.0000,0.0000,0.0000,
449,587.10,17032.90,-17032.90,2862.0000,65535.0000,5238.6000,2376.6000,0.0000,0.0000,0.0000,
450,587.58,17018.86,-17018.86,2197.4000,65535.0000,4527.4000,2330.0000,0.0000,0.0000,0.0000,
451,588.07,17004.85,-17004.85,2482.6000,65535.0000,4824.8000,2342.2000,0.0000,0.0000,0.0000,
452,588.55,16990.87,-16990.87,2390.6000,65535.0000,4737.6000,2347.0000,0.0000,0.0000,0.0000,
453,589.04,16976.92,-16976.92,2287.8000,65535.0000,4630.8000,2343.0000,0.0000,0.0000,0.0000,
454,589.52,16962.99,-16962.99,2620.0000,65535.0000,5034.2000,2414.2000,0.0000,0.0000,0.0000,
455,590.00,16949.10,-16949.10,2525.2000,65535.0000,4933.0000,2407.8000,0.0000,0.0000,0.0000,
456,590.48,16935.23,-16935.23,2384.8000,65535.0000,4741.6000,2356.8000,0.0000,0.0000,0.0000,
457,590.97,16921.40,-16921.40,2324.2000,65535.0000,4698.2000,2374.0000,0.0000,0.0000,0.0000,
458,591.45,16907.59,-16907.59,2148.2000,65535.0000,4531.6000,2383.4000,0.0000,0.0000,0.0000,
459,591.93,16893.81,-16893.81,2350.8000,65535.0000,4789.0000,2438.2000,0.0000,0.0000,0.0000,
460,592.42,16880.06,-16880.06,2239.8000,65535.0000,4611.4000,2371.6000,0.0000,0.0000,0.0000,
461,592.90,16866.33,-16866.33,2790.8000,65535.0000,5243.0000,2452.2000,0.0000,0.0000,0.0000,
462,593.38,16852.64,-16852.64,2239.8000,65535.0000,4664.2000,2424.4000,0.0000,0.0000,0.0000,
463,593.86,16838.97,-16838.97,2325.0000,65535.0000,4819.2000,2494.2000,0.0000,0.0000,0.0000,
464,594.34,16825.33,-16825.33,2612.8000,65535.0000,5094.2000,2481.4000,0.0000,0.0000,0.0000,
465,594.82,16811.72,-16811.72,2664.8000,65535.0000,5141.6000,2476.8000,0.0000,0.0000,0.0000,
466,595.30,16798.14,-16798.14,2192.2000,65535.0000,4602.0000,2409.8000,0.0000,0.0000,0.0000,
467,595.78,16784.58,-16784.58,2447.0000,65535.0000,4965.8000,2518.8000,0.0000,0.0000,0.0000,
468,596.27,16771.05,-16771.05,2545.8000,65535.0000,5018.6000,2472.8000,0.0000,0.0000,0.0000,
469,596.75,16757.55,-16757.55,2456.6000,65535.0000,4922.8000,2466.2000,0.0000,0.0000,0.0000,
470,597.23,16744.08,-16744.08,2506.6000,65535.0000,5039.6000,2533.0000,0.0000,0.0000,0.0000,
471,597.71,16730.64,-16730.64,2572.4000,65535.0000,5115.0000,2542.6000,0.0000,0.0000,0.0000,
472,598.19,16717.22,-16717.22,1962.0000,65535.0000,4509.4000,2547.4000,0.0000,0.0000,0.0000,
473,598.67,16703.83,-16703.83,2133.6000,65535.0000,4683.0000,2549.4000,0.0000,0.0000,0.0000,
474,599.14,16690.47,-16690.47,2242.4000,65535.0000,4818.8000,2576.4000,0.0000,0.0000,0.0000,
475,599.62,16677.13,-16677.13,2691.2000,65535.0000,5293.4000,2602.2000,0.0000,0.0000,0.0000,
476,600.10,16663.82,-16663.82,2603.0000,65535.0000,5177.4000,2574.4000,0.0000,0.0000,0.0000,
477,600.58,16650.54,-16650.54,2266.6000,65535.0000,4877.2000,2610.6000,0.0000,0.0000,0.0000,
478,601.06,16637.29,-16637.29,2329.6000,65535.0000,4927.0000,2597.4000,0.0000,0.0000,0.0000,
479,601.54,16624.06,-16624.06,2637.8000,65535.0000,5290.8000,2653.0000,0.0000,0.0000,0.0000,
480,602.02,16610.86,-16610.86,2535.4000,65535.0000,5157.0000,2621.6000,0.0000,0.0000,0.0000,
481,602.49,16597.68,-16597.68,3127.2000,65535.0000,5846.0000,2718.8000,0.0000,0.0000,0.0000,
482,602.97,16584.54,-16584.54,2312.6000,65535.0000,4937.0000,2624.4000,0.0000,0.0000,0.0000,
483,603.45,16571.42,-16571.42,2354.8000,65535.0000,4992.0000,2637.2000,0.0000,0.0000,0.0000,
484,603.93,16558.32,-16558.32,4643.0000,65535.0000,7370.6000,2727.6000,0.0000,0.0000,0.0000,
485,604.40,16545.25,-16545.25,2368.6000,65535.0000,5071.8000,2703.2000,0.0000,0.0000,0.0000,
486,604.88,16532.21,-16532.21,2450.8000,65535.0000,5175.2000,2724.4000,0.0000,0.0000,0.0000,
487,605.36,16519.20,-16519.20,2888.8000,65535.0000,5574.0000,2685.2000,0.0000,0.0000,0.0000,
488,605.83,16506.21,-16506.21,2904.8000,65535.0000,5583.8000,2679.0000,0.0000,0.0000,0.0000,
489,606.31,16493.24,-16493.24,2419.4000,65535.0000,5067.6000,2648.2000,0.0000,0.0000,0.0000,
490,606.78,16480.31,-16480.31,2032.2000,65535.0000,4722.4000,2690.2000,0.0000,0.0000,0.0000,
491,607.26,16467.39,-16467.39,2223.6000,65535.0000,4947.4000,2723.8000,0.0000,0.0000,0.0000,
492,607.74,16454.51,-16454.51,2207.6000,65535.0000,4943.4000,2735.8000,0.0000,0.0000,0.0000,
493,608.21,16441.65,-16441.65,2300.8000,65535.0000,5063.2000,2762.4000,0.0000,0.0000,0.0000,
494,608.69,16428.82,-16428.82,2275.4000,65535.0000,5079.2000,2803.8000,0.0000,0.0000,0.0000,
495,609.16,16416.01,-16416.01,2272.4000,65535.0000,5130.6000,2858.2000,0.0000,0.0000,0.0000,
496,609.64,16403.22,-16403.22,2495.0000,65535.0000,5312.0000,2817.0000,0.0000,0.0000,0.0000,
497,610.11,16390.47,-16390.47,2796.6000,65535.0000,5698.0000,2901.4000,0.0000,0.0000,0.0000,
498,610.59,16377.73,-16377.73,2249.0000,65535.0000,5097.2000,2848.2000,0.0000,0.0000,0.0000,
499,611.06,16365.03,-16365.03,2344.4000,65535.0000,5210.2000,2865.8000,0.0000,0.0000,0.0000,
500,611.53,16352.35,-16352.35,2229.0000,65535.0000,5146.2000,2917.2000,0.0000,0.0000,0.0000,
501,612.01,16339.69,-16339.69,2358.4000,65535.0000,5452.8000,3094.4000,0.0000,0.0000,0.0000,
502,612.48,16327.06,-16327.06,2892.2000,65535.0000,6092.4000,3200.2000,0.0000,0.0000,0.0000,
503,612.95,16314.46,-16314.46,2236.0000,65535.0000,5334.8000,3098.8000,0.0000,0.0000,0.0000,
504,613.43,16301.87,-16301.87,2742.0000,65535.0000,5783.6000,3041.6000,0.0000,0.0000,0.0000,
505,613.90,16289.32,-16289.32,2651.0000,65535.0000,5690.0000,3039.0000,0.0000,0.0000,0.0000,
506,614.37,16276.79,-16276.79,2559.4000,65535.0000,5592.6000,3033.2000,0.0000,0.0000,0.0000,
507,614.84,16264.28,-16264.28,2830.4000,65535.0000,5791.4000,2961.0000,0.0000,0.0000,0.0000,
508,615.32,16251.80,-16251.80,2484.2000,65535.0000,5482.2000,2998.0000,0.0000,0.0000,0.0000,
509,615.79,16239.34,-16239.34,2690.8000,65535.0000,5694.8000,3004.0000,0.0000,0.0000,0.0000,
510,616.26,16226.91,-16226.91,2150.2000,65535.0000,5111.8000,2961.6000,0.0000,0.0000,0.0000,
511,616.73,16214.50,-16214.50,2486.2000,65535.0000,5464.6000,2978.4000,0.0000,0.0000,0.0000,
512,617.20,16202.12,-16202.12,2615.4000,65535.0000,5597.0000,2981.6000,0.0000,0.0000,0.0000,
513,617.67,16189.76,-16189.76,2130.4000,65535.0000,5125.2000,2994.8000,0.0000,0.0000,0.0000,
514,618.15,16177.43,-16177.43,2078.8000,65535.0000,5027.0000,2948.2000,0.0000,0.0000,0.0000,
515,618.62,16165.12,-16165.12,2116.2000,65535.0000,5080.4000,2964.2000,0.0000,0.0000,0.0000,
516,619.09,16152.83,-16152.83,2198.8000,65535.0000,5173.4000,2974.6000,0.0000,0.0000,0.0000,
517,619.56,16140.57,-16140.57,2232.0000,65535.0000,5194.0000,2962.0000,0.0000,0.0000,0.0000,
518,620.03,16128.33,-16128.33,2377.0000,65535.0000,5328.0000,2951.0000,0.0000,0.0000,0.0000,
519,620.50,16116.12,-16116.12,2155.0000,65535.0000,5222.6000,3067.6000,0.0000,0.0000,0.0000,
520,620.97,16103.93,-16103.93,2214.6000,65535.0000,5233.8000,3019.2000,0.0000,0.0000,0.0000,
521,621.44,16091.76,-16091.76,2773.2000,65535.0000,5845.8000,3072.6000,0.0000,0.0000,0.0000,
522,621.91,16079.62,-16079.62,2077.2000,65535.0000,5124.4000,3047.2000,0.0000,0.0000,0.0000,
523,622.37,16067.50,-16067.50,2151.4000,65535.0000,5246.6000,3095.2000,0.0000,0.0000,0.0000,
524,622.84,16055.41,-16055.41,2388.4000,65535.0000,5411.6000,3023.2000,0.0000,0.0000,0.0000,
525,623.31,16043.33,-16043.33,2480.0000,65535.0000,5513.8000,3033.8000,0.0000,0.0000,0.0000,
526,623.78,16031.29,-16031.29,2457.2000,65535.0000,5497.8000,3040.6000,0.0000,0.0000,0.0000,
527,624.25,16019.26,-16019.26,2372.6000,65535.0000,5434.2000,3061.6000,0.0000,0.0000,0.0000,
528,624.72,16007.26,-16007.26,2347.4000,65535.0000,5480.0000,3132.6000,0.0000,0.0000,0.0000,
529,625.18,15995.28,-15995.28,1963.0000,65535.0000,5068.6000,3105.6000,0.0000,0.0000,0.0000,
530,625.65,15983.33,-15983.33,2335.2000,65535.0000,5403.0000,3067.8000,0.0000,0.0000,0.0000,
531,626.12,15971.40,-15971.40,2159.4000,65535.0000,5239.4000,3080.0000,0.0000,0.0000,0.0000,
532,626.59,15959.49,-15959.49,2592.8000,65535.0000,5655.8000,3063.0000,0.0000,0.0000,0.0000,
533,627.05,15947.60,-15947.60,2351.0000,65535.0000,5419.6000,3068.6000,0.0000,0.0000,0.0000,
534,627.52,15935.74,-15935.74,2764.2000,65535.0000,5824.0000,3059.8000,0.0000,0.0000,0.0000,
535,627.99,15923.90,-15923.90,2123.0000,65535.0000,5202.2000,3079.2000,0.0000,0.0000,0.0000,
536,628.45,15912.09,-15912.09,2290.0000,65535.0000,5343.2000,3053.2000,0.0000,0.0000,0.0000,
537,628.92,15900.29,-15900.29,2257.8000,65535.0000,5353.6000,3095.8000,0.0000,0.0000,0.0000,
538,629.39,15888.52,-15888.52,2397.2000,65535.0000,5392.4000,2995.2000,0.0000,0.0000,0.0000,
539,629.85,15876.78,-15876.78,2305.2000,65535.0000,5368.4000,3063.2000,0.0000,0.0000,0.0000,
540,630.32,15865.05,-15865.05,2806.6000,65535.0000,5903.4000,3096.8000,0.0000,0.0000,0.0000,
541,630.78,15853.35,-15853.35,2334.8000,65535.0000,5409.6000,3074.8000,0.0000,0.0000,0.0000,
542,631.25,15841.67,-15841.67,2515.4000,65535.0000,5659.8000,3144.4000,0.0000,0.0000,0.0000,
543,631.71,15830.01,-15830.01,2109.8000,65535.0000,5198.8000,3089.0000,0.0000,0.0000,0.0000,
544,632.18,15818.37,-15818.37,2135.2000,65535.0000,5216.6000,3081.4000,0.0000,0.0000,0.0000,
545,632.64,15806.76,-15806.76,2404.6000,65535.0000,5511.6000,3107.0000,0.0000,0.0000,0.0000,
546,633.10,15795.17,-15795.17,2434.2000,65535.0000,5597.6000,3163.4000,0.0000,0.0000,0.0000,
547,633.57,15783.60,-15783.60,2031.8000,65535.0000,5084.2000,3052.4000,0.0000,0.0000,0.0000,
548,634.03,15772.06,-15772.06,2067.6000,65535.0000,5126.4000,3058.8000,0.0000,0.0000,0.0000,
549,634.50,15760.53,-15760.53,2178.8000,65535.0000,5200.6000,3021.8000,0.0000,0.0000,0.0000,
550,634.96,15749.03,-15749.03,2608.8000,65535.0000,5677.0000,3068.2000,0.0000,0.0000,0.0000,
551,635.42,15737.55,-15737.55,1913.2000,65535.0000,5029.4000,3116.2000,0.0000,0.0000,0.0000,
552,635.89,15726.09,-15726.09,2386.8000,65535.0000,5479.8000,3093.0000,0.0000,0.0000,0.0000,
553,636.35,15714.65,-15714.65,2749.4000,65535.0000,5790.8000,3041.4000,0.0000,0.0000,0.0000,
554,636.81,15703.24,-15703.24,2604.0000,65535.0000,5735.4000,3131.4000,0.0000,0.0000,0.0000,
555,637.27,15691.85,-15691.85,2357.4000,65535.0000,5404.4000,3047.0000,0.0000,0.0000,0.0000,
556,637.74,15680.47,-15680.47,2229.6000,65535.0000,5301.8000,3072.2000,0.0000,0.0000,0.0000,
557,638.20,15669.12,-15669.12,2329.2000,65535.0000,5410.8000,3081.6000,0.0000,0.0000,0.0000,
558,638.66,15657.80,-15657.80,2179.0000,65535.0000,5307.0000,3128.0000,0.0000,0.0000,0.0000,
559,639.12,15646.49,-15646.49,2364.6000,65535.0000,5528.4000,3163.8000,0.0000,0.0000,0.0000,
560,639.58,15635.20,-15635.20,2031.6000,65535.0000,5088.2000,3056.6000,0.0000,0.0000,0.0000,
561,640.04,15623.94,-15623.94,2415.0000,65535.0000,5555.0000,3140.0000,0.0000,0.0000,0.0000,
562,640.50,15612.70,-15612.70,2168.8000,65535.0000,5247.2000,3078.4000,0.0000,0.0000,0.0000,
563,640.97,15601.48,-15601.48,2316.0000,65535.0000,5380.2000,3064.2000,0.0000,0.0000,0.0000,
564,641.43,15590.28,-15590.28,2020.8000,65535.0000,5139.2000,3118.4000,0.0000,0.0000,0.0000,
565,641.89,15579.10,-15579.10,2656.0000,65535.0000,5775.6000,3119.6000,0.0000,0.0000,0.0000,
566,642.35,15567.94,-15567.94,2272.2000,65535.0000,5392.0000,3119.8000,0.0000,0.0000,0.0000,
567,642.81,15556.80,-15556.80,2476.8000,65535.0000,5588.4000,3111.6000,0.0000,0.0000,0.0000,
568,643.27,15545.69,-15545.69,2204.2000,65535.0000,5377.0000,3172.8000,0.0000,0.0000,0.0000,
569,643.72,15534.59,-15534.59,2181.8000,65535.0000,5335.8000,3154.0000,0.0000,0.0000,0.0000,
570,644.18,15523.52,-15523.52,2435.8000,65535.0000,5590.4000,3154.6000,0.0000,0.0000,0.0000,
571,644.64,15512.46,-15512.46,2212.0000,65535.0000,5367.8000,3155.8000,0.0000,0.0000,0.0000,
572,645.10,15501.43,-15501.43,2781.8000,65535.0000,6018.2000,3236.4000,0.0000,0.0000,0.0000,
573,645.56,15490.42,-15490.42,2950.4000,65535.0000,6144.2000,3193.8000,0.0000,0.0000,0.0000,
574,646.02,15479.43,-15479.43,2274.0000,65535.0000,5396.6000,3122.6000,0.0000,0.0000,0.0000,
575,646.48,15468.46,-15468.46,2177.0000,65535.0000,5341.4000,3164.4000,0.0000,0.0000,0.0000,
576,646.93,15457.51,-15457.51,2295.2000,65535.0000,5452.6000,3157.4000,0.0000,0.0000,0.0000,
577,647.39,15446.58,-15446.58,2027.2000,65535.0000,5203.0000,3175.8000,0.0000,0.0000,0.0000,
578,647.85,15435.67,-15435.67,1963.2000,65535.0000,5046.6000,3083.4000,0.0000,0.0000,0.0000,
579,648.31,15424.78,-15424.78,2280.6000,65535.0000,5365.0000,3084.4000,0.0000,0.0000,0.0000,
580,648.76,15413.91,-15413.91,2127.4000,65535.0000,5284.2000,3156.8000,0.0000,0.0000,0.0000,
581,649.22,15403.07,-15403.07,2122.6000,65535.0000,5326.0000,3203.4000,0.0000,0.0000,0.0000,
582,649.68,15392.24,-15392.24,2355.4000,65535.0000,5503.0000,3147.6000,0.0000,0.0000,0.0000,
583,650.13,15381.43,-15381.43,2467.0000,65535.0000,5652.6000,3185.6000,0.0000,0.0000,0.0000,
584,650.59,15370.64,-15370.64,2137.4000,65535.0000,5378.4000,3241.0000,0.0000,0.0000,0.0000,
585,651.05,15359.88,-15359.88,2403.8000,65535.0000,5645.6000,3241.8000,0.0000,0.0000,0.0000,
586,651.50,15349.13,-15349.13,2014.0000,65535.0000,5264.0000,3250.0000,0.0000,0.0000,0.0000,
587,651.96,15338.40,-15338.40,2275.6000,65535.0000,5522.0000,3246.4000,0.0000,0.0000,0.0000,
588,652.41,15327.69,-15327.69,2270.2000,65535.0000,5510.4000,3240.2000,0.0000,0.0000,0.0000,
589,652.87,15317.01,-15317.01,2383.0000,65535.0000,5636.2000,3253.2000,0.0000,0.0000,0.0000,
590,653.32,15306.34,-15306.34,2359.8000,65535.0000,5605.2000,3245.4000,0.0000,0.0000,0.0000,
591,653.78,15295.69,-15295.69,2393.4000,65535.0000,5647.6000,3254.2000,0.0000,0.0000,0.0000,
592,654.23,15285.06,-15285.06,2105.2000,65535.0000,5367.6000,3262.4000,0.0000,0.0000,0.0000,
593,654.69,15274.45,-15274.45,2137.0000,65535.0000,5334.6000,3197.6000,0.0000,0.0000,0.0000,
594,655.14,15263.86,-15263.86,2368.8000,65535.0000,5629.6000,3260.8000,0.0000,0.0000,0.0000,
595,655.60,15253.29,-15253.29,2717.4000,65535.0000,6041.2000,3323.8000,0.0000,0.0000,0.0000,
596,656.05,15242.74,-15242.74,2627.6000,65535.0000,5950.2000,3322.6000,0.0000,0.0000,0.0000,
597,656.50,15232.21,-15232.21,2479.0000,65535.0000,5764.2000,3285.2000,0.0000,0.0000,0.0000,
598,656.96,15221.70,-15221.70,2311.2000,65535.0000,5635.0000,3323.8000,0.0000,0.0000,0.0000,
599,657.41,15211.21,-15211.21,2242.6000,65535.0000,5569.4000,3326.8000,0.0000,0.0000,0.0000,
600,657.86,15200.74,-15200.74,2182.2000,65535.0000,5482.4000,3300.2000,0.0000,0.0000,0.0000,
601,658.32,15190.29,-15190.29,2339.6000,65535.0000,5654.2000,3314.6000,0.0000,0.0000,0.0000,
602,658.77,15179.85,-15179.85,2155.4000,65535.0000,5458.2000,3302.8000,0.0000,0.0000,0.0000,
603,659.22,15169.44,-15169.44,2635.8000,65535.0000,6019.8000,3384.0000,0.0000,0.0000,0.0000,
604,659.67,15159.04,-15159.04,2411.4000,65535.0000,5817.4000,3406.0000,0.0000,0.0000,0.0000,
605,660.12,15148.66,-15148.66,2143.6000,65535.0000,5497.6000,3354.0000,0.0000,0.0000,0.0000,
606,660.58,15138.31,-15138.31,2466.4000,65535.0000,5823.6000,3357.2000,0.0000,0.0000,0.0000,
607,661.03,15127.97,-15127.97,2480.4000,65535.0000,5815.6000,3335.2000,0.0000,0.0000,0.0000,
608,661.48,15117.65,-15117.65,2747.0000,65535.0000,6110.4000,3363.4000,0.0000,0.0000,0.0000,
609,661.93,15107.35,-15107.35,2156.8000,65535.0000,5434.8000,3278.0000,0.0000,0.0000,0.0000,
610,662.38,15097.07,-15097.07,2061.4000,65535.0000,5406.8000,3345.4000,0.0000,0.0000,0.0000,
611,662.83,15086.80,-15086.80,2511.2000,65535.0000,5886.2000,3375.0000,0.0000,0.0000,0.0000,
612,663.28,15076.56,-15076.56,2235.0000,65535.0000,5596.8000,3361.8000,0.0000,0.0000,0.0000,
613,663.73,15066.33,-15066.33,2189.2000,65535.0000,5593.8000,3404.6000,0.0000,0.0000,0.0000,
614,664.18,15056.12,-15056.12,2328.8000,65535.0000,5743.6000,3414.8000,0.0000,0.0000,0.0000,
615,664.63,15045.93,-15045.93,2026.8000,65535.0000,5427.4000,3400.6000,0.0000,0.0000,0.0000,
616,665.08,15035.76,-15035.76,2594.2000,65535.0000,5978.4000,3384.2000,0.0000,0.0000,0.0000,
617,665.53,15025.61,-15025.61,2139.6000,65535.0000,5503.4000,3363.8000,0.0000,0.0000,0.0000,
618,665.98,15015.48,-15015.48,2093.2000,65535.0000,5479.4000,3386.2000,0.0000,0.0000,0.0000,
619,666.43,15005.36,-15005.36,2159.8000,65535.0000,5576.4000,3416.6000,0.0000,0.0000,0.0000,
620,666.88,14995.27,-14995.27,2669.2000,65535.0000,6088.8000,3419.6000,0.0000,0.0000,0.0000,
621,667.33,14985.19,-14985.19,2336.0000,65535.0000,5776.4000,3440.4000,0.0000,0.0000,0.0000,
622,667.77,14975.13,-14975.13,2355.4000,65535.0000,5790.0000,3434.6000,0.0000,0.0000,0.0000,
623,668.22,14965.09,-14965.09,2268.0000,65535.0000,5699.4000,3431.4000,0.0000,0.0000,0.0000,
624,668.67,14955.06,-14955.06,2141.4000,65535.0000,5577.4000,3436.0000,0.0000,0.0000,0.0000,
625,669.12,14945.06,-14945.06,2221.6000,65535.0000,5607.6000,3386.0000,0.0000,0.0000,0.0000,
626,669.56,14935.07,-14935.07,2981.4000,65535.0000,6463.0000,3481.6000,0.0000,0.0000,0.0000,
627,670.01,14925.10,-14925.10,2134.6000,65535.0000,5586.4000,3451.8000,0.0000,0.0000,0.0000,
628,670.46,14915.15,-14915.15,2106.8000,65535.0000,5562.4000,3455.6000,0.0000,0.0000,0.0000,
629,670.91,14905.22,-14905.22,2549.0000,65535.0000,5996.2000,3447.2000,0.0000,0.0000,0.0000,
630,671.35,14895.30,-14895.30,2300.0000,65535.0000,5805.6000,3505.6000,0.0000,0.0000,0.0000,
631,671.80,14885.40,-14885.40,2275.4000,65535.0000,5764.0000,3488.6000,0.0000,0.0000,0.0000,
632,672.25,14875.52,-14875.52,2826.2000,65535.0000,6351.2000,3525.0000,0.0000,0.0000,0.0000,
633,672.69,14865.66,-14865.66,2236.2000,65535.0000,5705.8000,3469.6000,0.0000,0.0000,0.0000,
634,673.14,14855.82,-14855.82,1995.8000,65535.0000,5513.0000,3517.2000,0.0000,0.0000,0.0000,
635,673.58,14845.99,-14845.99,2139.2000,65535.0000,5624.0000,3484.8000,0.0000,0.0000,0.0000,
636,674.03,14836.18,-14836.18,2186.2000,65535.0000,5665.0000,3478.8000,0.0000,0.0000,0.0000,
637,674.47,14826.39,-14826.39,2397.8000,65535.0000,5914.6000,3516.8000,0.0000,0.0000,0.0000,
638,674.92,14816.61,-14816.61,2343.4000,65535.0000,5795.4000,3452.0000,0.0000,0.0000,0.0000,
639,675.36,14806.86,-14806.86,2291.0000,65535.0000,5750.6000,3459.6000,0.0000,0.0000,0.0000,
640,675.81,14797.12,-14797.12,2914.8000,65535.0000,6477.4000,3562.6000,0.0000,0.0000,0.0000,
641,676.25,14787.40,-14787.40,2367.8000,65535.0000,5828.6000,3460.8000,0.0000,0.0000,0.0000,
642,676.70,14777.69,-14777.69,2379.6000,65535.0000,5870.2000,3490.6000,0.0000,0.0000,0.0000,
643,677.14,14768.01,-14768.01,2262.2000,65535.0000,5744.8000,3482.6000,0.0000,0.0000,0.0000,
644,677.58,14758.34,-14758.34,2202.8000,65535.0000,5695.8000,3493.0000,0.0000,0.0000,0.0000,
645,678.03,14748.68,-14748.68,2384.0000,65535.0000,5887.0000,3503.0000,0.0000,0.0000,0.0000,
646,678.47,14739.05,-14739.05,2524.8000,65535.0000,6028.0000,3503.2000,0.0000,0.0000,0.0000,
647,678.91,14729.43,-14729.43,2631.8000,65535.0000,6189.2000,3557.4000,0.0000,0.0000,0.0000,
648,679.36,14719.83,-14719.83,2131.2000,65535.0000,5564.0000,3432.8000,0.0000,0.0000,0.0000,
649,679.80,14710.24,-14710.24,2079.8000,65535.0000,5598.6000,3518.8000,0.0000,0.0000,0.0000,
650,680.24,14700.68,-14700.68,2867.2000,65535.0000,6346.0000,3478.8000,0.0000,0.0000,0.0000,
651,680.68,14691.13,-14691.13,2140.0000,65535.0000,5630.0000,3490.0000,0.0000,0.0000,0.0000,
652,681.12,14681.59,-14681.59,2367.8000,65535.0000,5845.8000,3478.0000,0.0000,0.0000,0.0000,
653,681.57,14672.08,-14672.08,2958.6000,65535.0000,6486.4000,3527.8000,0.0000,0.0000,0.0000,
654,682.01,14662.58,-14662.58,2162.8000,65535.0000,5670.6000,3507.8000,0.0000,0.0000,0.0000,
655,682.45,14653.09,-14653.09,2744.6000,65535.0000,6219.0000,3474.4000,0.0000,0.0000,0.0000,
656,682.89,14643.63,-14643.63,2595.4000,65535.0000,6036.6000,3441.2000,0.0000,0.0000,0.0000,
657,683.33,14634.18,-14634.18,2127.6000,65535.0000,5603.6000,3476.0000,0.0000,0.0000,0.0000,
658,683.77,14624.75,-14624.75,2380.2000,65535.0000,5863.2000,3483.0000,0.0000,0.0000,0.0000,
659,684.21,14615.33,-14615.33,2276.2000,65535.0000,5760.2000,3484.0000,0.0000,0.0000,0.0000,
660,684.65,14605.93,-14605.93,2623.8000,65535.0000,6080.6000,3456.8000,0.0000,0.0000,0.0000,
661,685.09,14596.55,-14596.55,2294.0000,65535.0000,5761.0000,3467.0000,0.0000,0.0000,0.0000,
662,685.53,14587.18,-14587.18,2586.8000,65535.0000,6103.4000,3516.6000,0.0000,0.0000,0.0000,
663,685.97,14577.83,-14577.83,2341.0000,65535.0000,5789.2000,3448.2000,0.0000,0.0000,0.0000,
664,686.41,14568.50,-14568.50,2798.4000,65535.0000,6216.4000,3418.0000,0.0000,0.0000,0.0000,
665,686.85,14559.18,-14559.18,2486.2000,65535.0000,5928.0000,3441.8000,0.0000,0.0000,0.0000,
666,687.29,14549.88,-14549.88,5440.8000,65535.0000,8936.4000,3495.6000,0.0000,0.0000,0.0000,
667,687.73,14540.60,-14540.60,2640.4000,65535.0000,6116.2000,3475.8000,0.0000,0.0000,0.0000,
668,688.17,14531.33,-14531.33,2520.4000,65535.0000,5971.0000,3450.6000,0.0000,0.0000,0.0000,
669,688.61,14522.08,-14522.08,2819.0000,65535.0000,6240.0000,3421.0000,0.0000,0.0000,0.0000,
670,689.04,14512.84,-14512.84,2734.6000,65535.0000,6180.4000,3445.8000,0.0000,0.0000,0.0000,
671,689.48,14503.63,-14503.63,2452.8000,65535.0000,5809.0000,3356.2000,0.0000,0.0000,0.0000,
672,689.92,14494.42,-14494.42,3211.8000,65535.0000,6616.6000,3404.8000,0.0000,0.0000,0.0000,
673,690.36,14485.24,-14485.24,2292.4000,65535.0000,5712.8000,3420.4000,0.0000,0.0000,0.0000,
674,690.80,14476.06,-14476.06,2367.4000,65535.0000,5792.4000,3425.0000,0.0000,0.0000,0.0000,
675,691.23,14466.91,-14466.91,2203.2000,65535.0000,5563.2000,3360.0000,0.0000,0.0000,0.0000,
676,691.67,14457.77,-14457.77,2423.2000,65535.0000,5814.0000,3390.8000,0.0000,0.0000,0.0000,
677,692.11,14448.65,-14448.65,2528.0000,65535.0000,5855.4000,3327.4000,0.0000,0.0000,0.0000,
678,692.54,14439.54,-14439.54,2370.2000,65535.0000,5681.6000,3311.4000,0.0000,0.0000,0.0000,
679,692.98,14430.45,-14430.45,2629.2000,65535.0000,5976.6000,3347.4000,0.0000,0.0000,0.0000,
680,693.42,14421.37,-14421.37,2357.4000,65535.0000,5686.6000,3329.2000,0.0000,0.0000,0.0000,
681,693.85,14412.31,-14412.31,2288.0000,65535.0000,5596.4000,3308.4000,0.0000,0.0000,0.0000,
682,694.29,14403.27,-14403.27,3070.4000,65535.0000,6449.8000,3379.4000,0.0000,0.0000,0.0000,
683,694.72,14394.24,-14394.24,2463.4000,65535.0000,5801.4000,3338.0000,0.0000,0.0000,0.0000,
684,695.16,14385.23,-14385.23,2544.8000,65535.0000,5898.4000,3353.6000,0.0000,0.0000,0.0000,
685,695.59,14376.23,-14376.23,2450.6000,65535.0000,5773.8000,3323.2000,0.0000,0.0000,0.0000,
686,696.03,14367.25,-14367.25,2168.2000,65535.0000,5537.4000,3369.2000,0.0000,0.0000,0.0000,
687,696.46,14358.29,-14358.29,2619.2000,65535.0000,5917.2000,3298.0000,0.0000,0.0000,0.0000,
688,696.90,14349.34,-14349.34,2085.6000,65535.0000,5382.4000,3296.8000,0.0000,0.0000,0.0000,
689,697.33,14340.40,-14340.40,2217.0000,65535.0000,5508.6000,3291.6000,0.0000,0.0000,0.0000,
690,697.76,14331.48,-14331.48,2424.0000,65535.0000,5736.6000,3312.6000,0.0000,0.0000,0.0000,
691,698.20,14322.58,-14322.58,3301.8000,65535.0000,6649.6000,3347.8000,0.0000,0.0000,0.0000,
692,698.63,14313.69,-14313.69,2229.6000,65535.0000,5552.2000,3322.6000,0.0000,0.0000,0.0000,
693,699.07,14304.82,-14304.82,3185.4000,65535.0000,6502.6000,3317.2000,0.0000,0.0000,0.0000,
694,699.50,14295.96,-14295.96,2850.4000,65535.0000,6192.0000,3341.6000,0.0000,0.0000,0.0000,
695,699.93,14287.12,-14287.12,2495.6000,65535.0000,5771.2000,3275.6000,0.0000,0.0000,0.0000,
696,700.36,14278.29,-14278.29,2364.4000,65535.0000,5630.6000,3266.2000,0.0000,0.0000,0.0000,
697,700.80,14269.48,-14269.48,3141.4000,65535.0000,6414.4000,3273.0000,0.0000,0.0000,0.0000,
698,701.23,14260.68,-14260.68,2438.8000,65535.0000,5685.2000,3246.4000,0.0000,0.0000,0.0000,
699,701.66,14251.90,-14251.90,2714.0000,65535.0000,5971.6000,3257.6000,0.0000,0.0000,0.0000,
700,702.09,14243.13,-14243.13,2936.6000,65535.0000,6233.8000,3297.2000,0.0000,0.0000,0.0000,
701,702.52,14234.38,-14234.38,2305.8000,65535.0000,5553.2000,3247.4000,0.0000,0.0000,0.0000,
702,702.96,14225.64,-14225.64,2380.0000,65535.0000,5659.0000,3279.0000,0.0000,0.0000,0.0000,
703,703.39,14216.92,-14216.92,2348.6000,65535.0000,5617.4000,3268.8000,0.0000,0.0000,0.0000,
704,703.82,14208.21,-14208.21,2434.8000,65535.0000,5675.8000,3241.0000,0.0000,0.0000,0.0000,
705,704.25,14199.52,-14199.52,2462.0000,65535.0000,5719.8000,3257.8000,0.0000,0.0000,0.0000,
706,704.68,14190.84,-14190.84,2446.4000,65535.0000,5701.0000,3254.6000,0.0000,0.0000,0.0000,
707,705.11,14182.18,-14182.18,2293.0000,65535.0000,5460.6000,3167.6000,0.0000,0.0000,0.0000,
708,705.54,14173.53,-14173.53,2500.2000,65535.0000,5712.0000,3211.8000,0.0000,0.0000,0.0000,
709,705.97,14164.90,-14164.90,3121.0000,65535.0000,6395.4000,3274.4000,0.0000,0.0000,0.0000,
710,706.40,14156.28,-14156.28,2294.8000,65535.0000,5521.4000,3226.6000,0.0000,0.0000,0.0000,
711,706.83,14147.68,-14147.68,2245.4000,65535.0000,5478.8000,3233.4000,0.0000,0.0000,0.0000,
712,707.26,14139.09,-14139.09,2160.4000,65535.0000,5398.2000,3237.8000,0.0000,0.0000,0.0000,
713,707.69,14130.52,-14130.52,2385.6000,65535.0000,5597.8000,3212.2000,0.0000,0.0000,0.0000,
714,708.12,14121.96,-14121.96,2629.8000,65535.0000,5845.6000,3215.8000,0.0000,0.0000,0.0000,
715,708.55,14113.42,-14113.42,2218.6000,65535.0000,5408.4000,3189.8000,0.0000,0.0000,0.0000,
716,708.97,14104.88,-14104.88,2124.6000,65535.0000,5312.2000,3187.6000,0.0000,0.0000,0.0000,
717,709.40,14096.37,-14096.37,2198.0000,65535.0000,5448.6000,3250.6000,0.0000,0.0000,0.0000,
718,709.83,14087.87,-14087.87,2392.2000,65535.0000,5609.0000,3216.8000,0.0000,0.0000,0.0000,
719,710.26,14079.38,-14079.38,2438.4000,65535.0000,5645.6000,3207.2000,0.0000,0.0000,0.0000,
720,710.69,14070.91,-14070.91,3344.4000,65535.0000,6633.0000,3288.6000,0.0000,0.0000,0.0000,
721,711.11,14062.45,-14062.45,2477.0000,65535.0000,5711.4000,3234.4000,0.0000,0.0000,0.0000,
722,711.54,14054.01,-14054.01,2608.8000,65535.0000,5804.8000,3196.0000,0.0000,0.0000,0.0000,
723,711.97,14045.58,-14045.58,2494.0000,65535.0000,5708.4000,3214.4000,0.0000,0.0000,0.0000,
724,712.39,14037.16,-14037.16,2295.4000,65535.0000,5525.2000,3229.8000,0.0000,0.0000,0.0000,
725,712.82,14028.76,-14028.76,2641.8000,65535.0000,5879.8000,3238.0000,0.0000,0.0000,0.0000,
726,713.25,14020.38,-14020.38,3125.8000,65535.0000,6443.0000,3317.2000,0.0000,0.0000,0.0000,
727,713.67,14012.00,-14012.00,2390.4000,65535.0000,5676.2000,3285.8000,0.0000,0.0000,0.0000,
728,714.10,14003.64,-14003.64,2522.0000,65535.0000,5685.6000,3163.6000,0.0000,0.0000,0.0000,
729,714.53,13995.30,-13995.30,2167.8000,65535.0000,5295.2000,3127.4000,0.0000,0.0000,0.0000,
730,714.95,13986.97,-13986.97,2253.4000,65535.0000,5434.6000,3181.2000,0.0000,0.0000,0.0000,
731,715.38,13978.65,-13978.65,2468.0000,65535.0000,5688.8000,3220.8000,0.0000,0.0000,0.0000,
732,715.80,13970.35,-13970.35,2868.4000,65535.0000,6035.8000,3167.4000,0.0000,0.0000,0.0000,
733,716.23,13962.06,-13962.06,2353.2000,65535.0000,5524.4000,3171.2000,0.0000,0.0000,0.0000,
734,716.65,13953.79,-13953.79,2212.6000,65535.0000,5408.8000,3196.2000,0.0000,0.0000,0.0000,
735,717.08,13945.53,-13945.53,2338.8000,65535.0000,5515.8000,3177.0000,0.0000,0.0000,0.0000,
736,717.50,13937.28,-13937.28,2453.2000,65535.0000,5650.8000,3197.6000,0.0000,0.0000,0.0000,
737,717.92,13929.05,-13929.05,3024.4000,65535.0000,6227.6000,3203.2000,0.0000,0.0000,0.0000,
738,718.35,13920.83,-13920.83,2071.8000,65535.0000,5245.2000,3173.4000,0.0000,0.0000,0.0000,
739,718.77,13912.63,-13912.63,2150.0000,65535.0000,5308.4000,3158.4000,0.0000,0.0000,0.0000,
740,719.20,13904.43,-13904.43,2537.2000,65535.0000,5715.0000,3177.8000,0.0000,0.0000,0.0000,
741,719.62,13896.26,-13896.26,2080.0000,65535.0000,5267.8000,3187.8000,0.0000,0.0000,0.0000,
742,720.04,13888.09,-13888.09,2226.8000,65535.0000,5388.6000,3161.8000,0.0000,0.0000,0.0000,
743,720.46,13879.94,-13879.94,2083.0000,65535.0000,5229.8000,3146.8000,0.0000,0.0000,0.0000,
744,720.89,13871.81,-13871.81,2166.0000,65535.0000,5303.0000,3137.0000,0.0000,0.0000,0.0000,
745,721.31,13863.68,-13863.68,2376.8000,65535.0000,5549.4000,3172.6000,0.0000,0.0000,0.0000,
746,721.73,13855.57,-13855.57,2170.6000,65535.0000,5322.4000,3151.8000,0.0000,0.0000,0.0000,
747,722.15,13847.48,-13847.48,2392.6000,65535.0000,5542.0000,3149.4000,0.0000,0.0000,0.0000,
748,722.57,13839.39,-13839.39,2653.4000,65535.0000,5845.8000,3192.4000,0.0000,0.0000,0.0000,
749,723.00,13831.33,-13831.33,2284.0000,65535.0000,5435.0000,3151.0000,0.0000,0.0000,0.0000,
750,723.42,13823.27,-13823.27,2230.4000,65535.0000,5371.6000,3141.2000,0.0000,0.0000,0.0000,
751,723.84,13815.23,-13815.23,2567.0000,65535.0000,5708.4000,3141.4000,0.0000,0.0000,0.0000,
752,724.26,13807.20,-13807.20,2954.4000,65535.0000,6180.2000,3225.8000,0.0000,0.0000,0.0000,
753,724.68,13799.18,-13799.18,2381.4000,65535.0000,5567.6000,3186.2000,0.0000,0.0000,0.0000,
754,725.10,13791.18,-13791.18,2330.6000,65535.0000,5513.0000,3182.4000,0.0000,0.0000,0.0000,
755,725.52,13783.19,-13783.19,2131.2000,65535.0000,5284.0000,3152.8000,0.0000,0.0000,0.0000,
756,725.94,13775.22,-13775.22,2327.4000,65535.0000,5478.8000,3151.4000,0.0000,0.0000,0.0000,
757,726.36,13767.26,-13767.26,2542.8000,65535.0000,5763.4000,3220.6000,0.0000,0.0000,0.0000,
758,726.78,13759.31,-13759.31,2234.2000,65535.0000,5383.4000,3149.2000,0.0000,0.0000,0.0000,
759,727.20,13751.37,-13751.37,2681.4000,65535.0000,5874.0000,3192.6000,0.0000,0.0000,0.0000,
760,727.62,13743.45,-13743.45,2198.8000,65535.0000,5359.0000,3160.2000,0.0000,0.0000,0.0000,
761,728.04,13735.54,-13735.54,2170.0000,65535.0000,5349.6000,3179.6000,0.0000,0.0000,0.0000,
762,728.46,13727.64,-13727.64,2128.2000,65535.0000,5269.0000,3140.8000,0.0000,0.0000,0.0000,
763,728.88,13719.76,-13719.76,2561.0000,65535.0000,5708.8000,3147.8000,0.0000,0.0000,0.0000,
764,729.29,13711.89,-13711.89,2978.2000,65535.0000,6174.4000,3196.2000,0.0000,0.0000,0.0000,
765,729.71,13704.03,-13704.03,2383.0000,65535.0000,5530.4000,3147.4000,0.0000,0.0000,0.0000,
766,730.13,13696.19,-13696.19,2341.6000,65535.0000,5506.0000,3164.4000,0.0000,0.0000,0.0000,
767,730.55,13688.35,-13688.35,2592.2000,65535.0000,5795.2000,3203.0000,0.0000,0.0000,0.0000,
768,730.97,13680.53,-13680.53,2268.2000,65535.0000,5444.4000,3176.2000,0.0000,0.0000,0.0000,
769,731.38,13672.73,-13672.73,2504.8000,65535.0000,5744.2000,3239.4000,0.0000,0.0000,0.0000,
770,731.80,13664.94,-13664.94,2053.0000,65535.0000,5192.0000,3139.0000,0.0000,0.0000,0.0000,
771,732.22,13657.16,-13657.16,2402.2000,65535.0000,5594.2000,3192.0000,0.0000,0.0000,0.0000,
772,732.63,13649.39,-13649.39,2582.2000,65535.0000,5783.2000,3201.0000,0.0000,0.0000,0.0000,
773,733.05,13641.63,-13641.63,2329.2000,65535.0000,5497.6000,3168.4000,0.0000,0.0000,0.0000,
774,733.47,13633.89,-13633.89,2580.4000,65535.0000,5787.0000,3206.6000,0.0000,0.0000,0.0000,
775,733.88,13626.16,-13626.16,2289.2000,65535.0000,5479.8000,3190.6000,0.0000,0.0000,0.0000,
776,734.30,13618.45,-13618.45,2073.4000,65535.0000,5285.2000,3211.8000,0.0000,0.0000,0.0000,
777,734.71,13610.74,-13610.74,2588.4000,65535.0000,5802.4000,3214.0000,0.0000,0.0000,0.0000,
778,735.13,13603.05,-13603.05,2337.4000,65535.0000,5521.4000,3184.0000,0.0000,0.0000,0.0000,
779,735.54,13595.37,-13595.37,2365.2000,65535.0000,5512.0000,3146.8000,0.0000,0.0000,0.0000,
780,735.96,13587.71,-13587.71,2498.2000,65535.0000,5710.8000,3212.6000,0.0000,0.0000,0.0000,
781,736.37,13580.05,-13580.05,2163.8000,65535.0000,5335.0000,3171.2000,0.0000,0.0000,0.0000,
782,736.79,13572.41,-13572.41,2475.0000,65535.0000,5636.2000,3161.2000,0.0000,0.0000,0.0000,
783,737.20,13564.78,-13564.78,2227.8000,65535.0000,5402.2000,3174.4000,0.0000,0.0000,0.0000,
784,737.62,13557.17,-13557.17,2578.0000,65535.0000,5798.2000,3220.2000,0.0000,0.0000,0.0000,
785,738.03,13549.56,-13549.56,2209.4000,65535.0000,5391.8000,3182.4000,0.0000,0.0000,0.0000,
786,738.44,13541.97,-13541.97,2730.4000,65535.0000,5900.0000,3169.6000,0.0000,0.0000,0.0000,
787,738.86,13534.39,-13534.39,3405.8000,65535.0000,6621.2000,3215.4000,0.0000,0.0000,0.0000,
788,739.27,13526.83,-13526.83,2263.0000,65535.0000,5415.0000,3152.0000,0.0000,0.0000,0.0000,
789,739.68,13519.27,-13519.27,2469.2000,65535.0000,5648.2000,3179.0000,0.0000,0.0000,0.0000,
790,740.10,13511.73,-13511.73,2330.0000,65535.0000,5470.2000,3140.2000,0.0000,0.0000,0.0000,
791,740.51,13504.20,-13504.20,2300.4000,65535.0000,5484.0000,3183.6000,0.0000,0.0000,0.0000,
792,740.92,13496.69,-13496.69,2335.2000,65535.0000,5458.0000,3122.8000,0.0000,0.0000,0.0000,
793,741.33,13489.18,-13489.18,3036.2000,65535.0000,6247.0000,3210.8000,0.0000,0.0000,0.0000,
794,741.75,13481.69,-13481.69,3039.0000,65535.0000,6311.6000,3272.6000,0.0000,0.0000,0.0000,
795,742.16,13474.21,-13474.21,2210.8000,65535.0000,5410.2000,3199.4000,0.0000,0.0000,0.0000,
796,742.57,13466.74,-13466.74,2254.8000,65535.0000,5413.8000,3159.0000,0.0000,0.0000,0.0000,
797,742.98,13459.28,-13459.28,2360.6000,65535.0000,5439.8000,3079.2000,0.0000,0.0000,0.0000,
798,743.39,13451.84,-13451.84,2266.6000,65535.0000,5422.4000,3155.8000,0.0000,0.0000,0.0000,
799,743.80,13444.40,-13444.40,2799.8000,65535.0000,6012.2000,3212.4000,0.0000,0.0000,0.0000,
800,744.21,13436.98,-13436.98,2279.4000,65535.0000,5418.4000,3139.0000,0.0000,0.0000,0.0000,
801,744.63,13429.58,-13429.58,2469.4000,65535.0000,5580.4000,3111.0000,0.0000,0.0000,0.0000,
802,745.04,13422.18,-13422.18,2607.4000,65535.0000,5815.6000,3208.2000,0.0000,0.0000,0.0000,
803,745.45,13414.79,-13414.79,2690.8000,65535.0000,5930.4000,3239.6000,0.0000,0.0000,0.0000,
804,745.86,13407.42,-13407.42,2456.8000,65535.0000,5658.0000,3201.2000,0.0000,0.0000,0.0000,
805,746.27,13400.06,-13400.06,2438.6000,65535.0000,5564.4000,3125.8000,0.0000,0.0000,0.0000,
806,746.67,13392.71,-13392.71,2649.4000,65535.0000,5781.0000,3131.6000,0.0000,0.0000,0.0000,
807,747.08,13385.38,-13385.38,2219.6000,65535.0000,5358.8000,3139.2000,0.0000,0.0000,0.0000,
808,747.49,13378.05,-13378.05,2536.0000,65535.0000,5703.0000,3167.0000,0.0000,0.0000,0.0000,
809,747.90,13370.74,-13370.74,2396.2000,65535.0000,5504.4000,3108.2000,0.0000,0.0000,0.0000,
810,748.31,13363.44,-13363.44,3722.6000,65535.0000,6807.8000,3085.2000,0.0000,0.0000,0.0000,
811,748.72,13356.15,-13356.15,2359.4000,65535.0000,5480.8000,3121.4000,0.0000,0.0000,0.0000,
812,749.13,13348.87,-13348.87,2616.8000,65535.0000,5783.2000,3166.4000,0.0000,0.0000,0.0000,
813,749.54,13341.60,-13341.60,2336.6000,65535.0000,5430.8000,3094.2000,0.0000,0.0000,0.0000,
814,749.94,13334.35,-13334.35,2544.6000,65535.0000,5638.2000,3093.6000,0.0000,0.0000,0.0000,
815,750.35,13327.10,-13327.10,2423.0000,65535.0000,5458.0000,3035.0000,0.0000,0.0000,0.0000,
816,750.76,13319.87,-13319.87,3140.4000,65535.0000,6296.2000,3155.8000,0.0000,0.0000,0.0000,
817,751.17,13312.65,-13312.65,2483.2000,65535.0000,5525.6000,3042.4000,0.0000,0.0000,0.0000,
818,751.57,13305.45,-13305.45,2554.6000,65535.0000,5605.0000,3050.4000,0.0000,0.0000,0.0000,
819,751.98,13298.25,-13298.25,2407.0000,65535.0000,5433.0000,3026.0000,0.0000,0.0000,0.0000,
820,752.39,13291.06,-13291.06,2385.8000,65535.0000,5472.0000,3086.2000,0.0000,0.0000,0.0000,
821,752.79,13283.89,-13283.89,2736.4000,65535.0000,5778.8000,3042.4000,0.0000,0.0000,0.0000,
822,753.20,13276.73,-13276.73,2516.8000,65535.0000,5521.8000,3005.0000,0.0000,0.0000,0.0000,
823,753.60,13269.58,-13269.58,2805.0000,65535.0000,5839.4000,3034.4000,0.0000,0.0000,0.0000,
824,754.01,13262.44,-13262.44,2723.8000,65535.0000,5781.6000,3057.8000,0.0000,0.0000,0.0000,
825,754.41,13255.31,-13255.31,2402.4000,65535.0000,5448.6000,3046.2000,0.0000,0.0000,0.0000,
826,754.82,13248.19,-13248.19,2583.2000,65535.0000,5664.4000,3081.2000,0.0000,0.0000,0.0000,
827,755.22,13241.09,-13241.09,2782.6000,65535.0000,5820.2000,3037.6000,0.0000,0.0000,0.0000,
828,755.63,13233.99,-13233.99,2576.8000,65535.0000,5615.8000,3039.0000,0.0000,0.0000,0.0000,
829,756.03,13226.91,-13226.91,2313.8000,65535.0000,5312.0000,2998.2000,0.0000,0.0000,0.0000,
830,756.44,13219.84,-13219.84,2896.0000,65535.0000,5945.0000,3049.0000,0.0000,0.0000,0.0000,
831,756.84,13212.78,-13212.78,2583.6000,65535.0000,5654.8000,3071.2000,0.0000,0.0000,0.0000,
832,757.25,13205.73,-13205.73,2539.6000,65535.0000,5610.0000,3070.4000,0.0000,0.0000,0.0000,
833,757.65,13198.69,-13198.69,2767.4000,65535.0000,5775.4000,3008.0000,0.0000,0.0000,0.0000,
834,758.05,13191.67,-13191.67,2269.6000,65535.0000,5251.8000,2982.2000,0.0000,0.0000,0.0000,
835,758.46,13184.65,-13184.65,2420.4000,65535.0000,5441.0000,3020.6000,0.0000,0.0000,0.0000,
836,758.86,13177.65,-13177.65,2835.2000,65535.0000,5849.6000,3014.4000,0.0000,0.0000,0.0000,
837,759.26,13170.66,-13170.66,2196.2000,65535.0000,5130.6000,2934.4000,0.0000,0.0000,0.0000,
838,759.67,13163.67,-13163.67,2438.2000,65535.0000,5400.8000,2962.6000,0.0000,0.0000,0.0000,
839,760.07,13156.70,-13156.70,3253.4000,65535.0000,6247.0000,2993.6000,0.0000,0.0000,0.0000,
840,760.47,13149.74,-13149.74,2290.4000,65535.0000,5203.0000,2912.6000,0.0000,0.0000,0.0000,
841,760.87,13142.80,-13142.80,2234.0000,65535.0000,5195.6000,2961.6000,0.0000,0.0000,0.0000,
842,761.28,13135.86,-13135.86,2367.6000,65535.0000,5287.8000,2920.2000,0.0000,0.0000,0.0000,
843,761.68,13128.93,-13128.93,2431.4000,65535.0000,5400.2000,2968.8000,0.0000,0.0000,0.0000,
844,762.08,13122.02,-13122.02,2653.2000,65535.0000,5556.8000,2903.6000,0.0000,0.0000,0.0000,
845,762.48,13115.11,-13115.11,2564.6000,65535.0000,5476.8000,2912.2000,0.0000,0.0000,0.0000,
846,762.88,13108.22,-13108.22,2855.0000,65535.0000,5780.4000,2925.4000,0.0000,0.0000,0.0000,
847,763.28,13101.33,-13101.33,2762.0000,65535.0000,5647.0000,2885.0000,0.0000,0.0000,0.0000,
848,763.68,13094.46,-13094.46,2630.2000,65535.0000,5455.8000,2825.6000,0.0000,0.0000,0.0000,
849,764.08,13087.60,-13087.60,2663.0000,65535.0000,5565.0000,2902.0000,0.0000,0.0000,0.0000,
850,764.48,13080.75,-13080.75,2994.6000,65535.0000,5937.2000,2942.6000,0.0000,0.0000,0.0000,
851,764.88,13073.91,-13073.91,2251.4000,65535.0000,5080.0000,2828.6000,0.0000,0.0000,0.0000,
852,765.28,13067.08,-13067.08,2397.4000,65535.0000,5200.0000,2802.6000,0.0000,0.0000,0.0000,
853,765.68,13060.26,-13060.26,2340.2000,65535.0000,5154.2000,2814.0000,0.0000,0.0000,0.0000,
854,766.08,13053.45,-13053.45,2546.6000,65535.0000,5357.6000,2811.0000,0.0000,0.0000,0.0000,
855,766.48,13046.66,-13046.66,2213.4000,65535.0000,5005.6000,2792.2000,0.0000,0.0000,0.0000,
856,766.88,13039.87,-13039.87,2793.6000,65535.0000,5594.0000,2800.4000,0.0000,0.0000,0.0000,
857,767.28,13033.10,-13033.10,2689.6000,65535.0000,5500.4000,2810.8000,0.0000,0.0000,0.0000,
858,767.68,13026.33,-13026.33,2544.6000,65535.0000,5262.8000,2718.2000,0.0000,0.0000,0.0000,
859,768.07,13019.58,-13019.58,3558.8000,65535.0000,6375.2000,2816.4000,0.0000,0.0000,0.0000,
860,768.47,13012.83,-13012.83,2559.4000,65535.0000,5289.2000,2729.8000,0.0000,0.0000,0.0000,
861,768.87,13006.10,-13006.10,2162.8000,65535.0000,4917.2000,2754.4000,0.0000,0.0000,0.0000,
862,769.27,12999.38,-12999.38,2387.4000,65535.0000,5134.6000,2747.2000,0.0000,0.0000,0.0000,
863,769.66,12992.67,-12992.67,2593.0000,65535.0000,5345.2000,2752.2000,0.0000,0.0000,0.0000,
864,770.06,12985.96,-12985.96,2583.4000,65535.0000,5345.4000,2762.0000,0.0000,0.0000,0.0000,
865,770.46,12979.27,-12979.27,3053.0000,65535.0000,5777.8000,2724.8000,0.0000,0.0000,0.0000,
866,770.86,12972.59,-12972.59,2903.0000,65535.0000,5618.2000,2715.2000,0.0000,0.0000,0.0000,
867,771.25,12965.92,-12965.92,2792.6000,65535.0000,5460.8000,2668.2000,0.0000,0.0000,0.0000,
868,771.65,12959.26,-12959.26,2306.4000,65535.0000,5008.0000,2701.6000,0.0000,0.0000,0.0000,
869,772.04,12952.61,-12952.61,2763.4000,65535.0000,5449.6000,2686.2000,0.0000,0.0000,0.0000,
870,772.44,12945.98,-12945.98,2658.4000,65535.0000,5350.6000,2692.2000,0.0000,0.0000,0.0000,
871,772.84,12939.35,-12939.35,2472.8000,65535.0000,5122.6000,2649.8000,0.0000,0.0000,0.0000,
872,773.23,12932.73,-12932.73,2419.8000,65535.0000,5044.8000,2625.0000,0.0000,0.0000,0.0000,
873,773.63,12926.12,-12926.12,2458.8000,65535.0000,5118.2000,2659.4000,0.0000,0.0000,0.0000,
874,774.02,12919.52,-12919.52,2325.8000,65535.0000,4972.0000,2646.2000,0.0000,0.0000,0.0000,
875,774.42,12912.94,-12912.94,2284.8000,65535.0000,4915.2000,2630.4000,0.0000,0.0000,0.0000,
876,774.81,12906.36,-12906.36,2662.8000,65535.0000,5265.8000,2603.0000,0.0000,0.0000,0.0000,
877,775.21,12899.79,-12899.79,2486.0000,65535.0000,5113.8000,2627.8000,0.0000,0.0000,0.0000,
878,775.60,12893.24,-12893.24,2836.4000,65535.0000,5491.6000,2655.2000,0.0000,0.0000,0.0000,
879,775.99,12886.69,-12886.69,2220.0000,65535.0000,4812.4000,2592.4000,0.0000,0.0000,0.0000,
880,776.39,12880.15,-12880.15,2586.8000,65535.0000,5168.4000,2581.6000,0.0000,0.0000,0.0000,
881,776.78,12873.63,-12873.63,2838.4000,65535.0000,5466.2000,2627.8000,0.0000,0.0000,0.0000,
882,777.18,12867.11,-12867.11,2940.4000,65535.0000,5482.2000,2541.8000,0.0000,0.0000,0.0000,
883,777.57,12860.61,-12860.61,2500.6000,65535.0000,5065.8000,2565.2000,0.0000,0.0000,0.0000,
884,777.96,12854.11,-12854.11,2722.4000,65535.0000,5299.2000,2576.8000,0.0000,0.0000,0.0000,
885,778.35,12847.62,-12847.62,2872.4000,65535.0000,5490.8000,2618.4000,0.0000,0.0000,0.0000,
886,778.75,12841.15,-12841.15,2989.8000,65535.0000,5616.4000,2626.6000,0.0000,0.0000,0.0000,
887,779.14,12834.68,-12834.68,2412.8000,65535.0000,4935.2000,2522.4000,0.0000,0.0000,0.0000,
888,779.53,12828.23,-12828.23,2312.8000,65535.0000,4909.6000,2596.8000,0.0000,0.0000,0.0000,
889,779.92,12821.78,-12821.78,2281.4000,65535.0000,4801.8000,2520.4000,0.0000,0.0000,0.0000,
890,780.31,12815.35,-12815.35,2492.8000,65535.0000,5005.6000,2512.8000,0.0000,0.0000,0.0000,
891,780.71,12808.92,-12808.92,2397.0000,65535.0000,4940.2000,2543.2000,0.0000,0.0000,0.0000,
892,781.10,12802.50,-12802.50,2253.0000,65535.0000,4782.4000,2529.4000,0.0000,0.0000,0.0000,
893,781.49,12796.10,-12796.10,2374.4000,65535.0000,4875.2000,2500.8000,0.0000,0.0000,0.0000,
894,781.88,12789.70,-12789.70,2596.2000,65535.0000,5083.8000,2487.6000,0.0000,0.0000,0.0000,
895,782.27,12783.32,-12783.32,2592.4000,65535.0000,5146.4000,2554.0000,0.0000,0.0000,0.0000,
896,782.66,12776.94,-12776.94,2995.6000,65535.0000,5528.8000,2533.2000,0.0000,0.0000,0.0000,
897,783.05,12770.57,-12770.57,2807.2000,65535.0000,5304.0000,2496.8000,0.0000,0.0000,0.0000,
898,783.44,12764.22,-12764.22,3457.8000,65535.0000,5978.8000,2521.0000,0.0000,0.0000,0.0000,
899,783.83,12757.87,-12757.87,2432.4000,65535.0000,4885.2000,2452.8000,0.0000,0.0000,0.0000,
900,784.22,12751.53,-12751.53,2491.8000,65535.0000,4871.2000,2379.4000,0.0000,0.0000,0.0000,
901,784.61,12745.20,-12745.20,2420.4000,65535.0000,4804.0000,2383.6000,0.0000,0.0000,0.0000,
902,785.00,12738.89,-12738.89,2334.2000,65535.0000,4760.6000,2426.4000,0.0000,0.0000,0.0000,
903,785.39,12732.58,-12732.58,2327.0000,65535.0000,4707.0000,2380.0000,0.0000,0.0000,0.0000,
904,785.78,12726.28,-12726.28,2507.6000,65535.0000,4964.6000,2457.0000,0.0000,0.0000,0.0000,
905,786.16,12719.99,-12719.99,2293.6000,65535.0000,4715.0000,2421.4000,0.0000,0.0000,0.0000,
906,786.55,12713.71,-12713.71,2600.2000,65535.0000,4937.8000,2337.6000,0.0000,0.0000,0.0000,
907,786.94,12707.44,-12707.44,2569.8000,65535.0000,5010.6000,2440.8000,0.0000,0.0000,0.0000,
908,787.33,12701.18,-12701.18,2637.4000,65535.0000,5024.8000,2387.4000,0.0000,0.0000,0.0000,
909,787.72,12694.93,-12694.93,2503.0000,65535.0000,4883.0000,2380.0000,0.0000,0.0000,0.0000,
910,788.10,12688.69,-12688.69,2416.2000,65535.0000,4752.6000,2336.4000,0.0000,0.0000,0.0000,
911,788.49,12682.46,-12682.46,2576.6000,65535.0000,4975.0000,2398.4000,0.0000,0.0000,0.0000,
912,788.88,12676.24,-12676.24,2275.2000,65535.0000,4654.2000,2379.0000,0.0000,0.0000,0.0000,
913,789.26,12670.03,-12670.03,2515.8000,65535.0000,4889.0000,2373.2000,0.0000,0.0000,0.0000,
914,789.65,12663.83,-12663.83,2636.0000,65535.0000,5036.4000,2400.4000,0.0000,0.0000,0.0000,
915,790.04,12657.63,-12657.63,2476.4000,65535.0000,4783.0000,2306.6000,0.0000,0.0000,0.0000,
916,790.42,12651.45,-12651.45,2582.2000,65535.0000,4892.6000,2310.4000,0.0000,0.0000,0.0000,
917,790.81,12645.28,-12645.28,2335.2000,65535.0000,4615.0000,2279.8000,0.0000,0.0000,0.0000,
918,791.19,12639.11,-12639.11,3240.8000,65535.0000,5515.2000,2274.4000,0.0000,0.0000,0.0000,
919,791.58,12632.96,-12632.96,2525.2000,65535.0000,4826.2000,2301.0000,0.0000,0.0000,0.0000,
920,791.97,12626.81,-12626.81,2390.4000,65535.0000,4624.8000,2234.4000,0.0000,0.0000,0.0000,
921,792.35,12620.67,-12620.67,2325.4000,65535.0000,4547.4000,2222.0000,0.0000,0.0000,0.0000,
922,792.74,12614.55,-12614.55,2582.0000,65535.0000,4829.6000,2247.6000,0.0000,0.0000,0.0000,
923,793.12,12608.43,-12608.43,2509.8000,65535.0000,4821.2000,2311.4000,0.0000,0.0000,0.0000,
924,793.50,12602.32,-12602.32,2617.0000,65535.0000,4895.4000,2278.4000,0.0000,0.0000,0.0000,
925,793.89,12596.22,-12596.22,2508.2000,65535.0000,4758.6000,2250.4000,0.0000,0.0000,0.0000,
926,794.27,12590.13,-12590.13,2890.0000,65535.0000,5130.4000,2240.4000,0.0000,0.0000,0.0000,
927,794.66,12584.05,-12584.05,2837.2000,65535.0000,5068.2000,2231.0000,0.0000,0.0000,0.0000,
928,795.04,12577.98,-12577.98,3056.2000,65535.0000,5340.0000,2283.8000,0.0000,0.0000,0.0000,
929,795.42,12571.92,-12571.92,2508.6000,65535.0000,4791.0000,2282.4000,0.0000,0.0000,0.0000,
930,795.81,12565.86,-12565.86,2717.8000,65535.0000,4921.2000,2203.4000,0.0000,0.0000,0.0000,
931,796.19,12559.82,-12559.82,2532.6000,65535.0000,4753.4000,2220.8000,0.0000,0.0000,0.0000,
932,796.57,12553.78,-12553.78,2719.4000,65535.0000,4979.2000,2259.8000,0.0000,0.0000,0.0000,
933,796.96,12547.76,-12547.76,2838.2000,65535.0000,5097.8000,2259.6000,0.0000,0.0000,0.0000,
934,797.34,12541.74,-12541.74,2504.8000,65535.0000,4632.8000,2128.0000,0.0000,0.0000,0.0000,
935,797.72,12535.74,-12535.74,2292.4000,65535.0000,4496.4000,2204.0000,0.0000,0.0000,0.0000,
936,798.10,12529.74,-12529.74,2711.2000,65535.0000,4928.4000,2217.2000,0.0000,0.0000,0.0000,
937,798.48,12523.75,-12523.75,2978.2000,65535.0000,5228.4000,2250.2000,0.0000,0.0000,0.0000,
938,798.86,12517.77,-12517.77,2633.6000,65535.0000,4856.4000,2222.8000,0.0000,0.0000,0.0000,
939,799.25,12511.80,-12511.80,2835.8000,65535.0000,5027.2000,2191.4000,0.0000,0.0000,0.0000,
940,799.63,12505.83,-12505.83,2569.6000,65535.0000,4753.2000,2183.6000,0.0000,0.0000,0.0000,
941,800.01,12499.88,-12499.88,2969.2000,65535.0000,5206.6000,2237.4000,0.0000,0.0000,0.0000,
942,800.39,12493.94,-12493.94,2486.8000,65535.0000,4651.2000,2164.4000,0.0000,0.0000,0.0000,
943,800.77,12488.00,-12488.00,2917.8000,65535.0000,5066.2000,2148.4000,0.0000,0.0000,0.0000,
944,801.15,12482.08,-12482.08,3581.2000,65535.0000,5740.2000,2159.0000,0.0000,0.0000,0.0000,
945,801.53,12476.16,-12476.16,2649.4000,65535.0000,4799.6000,2150.2000,0.0000,0.0000,0.0000,
946,801.91,12470.25,-12470.25,2704.0000,65535.0000,4811.2000,2107.2000,0.0000,0.0000,0.0000,
947,802.29,12464.35,-12464.35,3088.6000,65535.0000,5294.4000,2205.8000,0.0000,0.0000,0.0000,
948,802.67,12458.46,-12458.46,2924.2000,65535.0000,5092.0000,2167.8000,0.0000,0.0000,0.0000,
949,803.05,12452.58,-12452.58,2780.0000,65535.0000,4895.8000,2115.8000,0.0000,0.0000,0.0000,
950,803.43,12446.71,-12446.71,2852.0000,65535.0000,4980.4000,2128.4000,0.0000,0.0000,0.0000,
951,803.80,12440.84,-12440.84,3268.2000,65535.0000,5371.6000,2103.4000,0.0000,0.0000,0.0000,
952,804.18,12434.99,-12434.99,2399.8000,65535.0000,4539.8000,2140.0000,0.0000,0.0000,0.0000,
953,804.56,12429.14,-12429.14,2688.4000,65535.0000,4770.4000,2082.0000,0.0000,0.0000,0.0000,
954,804.94,12423.30,-12423.30,3122.6000,65535.0000,5253.4000,2130.8000,0.0000,0.0000,0.0000,
955,805.32,12417.48,-12417.48,2643.8000,65535.0000,4779.4000,2135.6000,0.0000,0.0000,0.0000,
956,805.69,12411.66,-12411.66,2733.4000,65535.0000,4862.6000,2129.2000,0.0000,0.0000,0.0000,
957,806.07,12405.84,-12405.84,2933.0000,65535.0000,5005.8000,2072.8000,0.0000,0.0000,0.0000,
958,806.45,12400.04,-12400.04,2657.2000,65535.0000,4748.6000,2091.4000,0.0000,0.0000,0.0000,
959,806.83,12394.25,-12394.25,3663.0000,65535.0000,5726.2000,2063.2000,0.0000,0.0000,0.0000,
960,807.20,12388.46,-12388.46,2620.0000,65535.0000,4669.6000,2049.6000,0.0000,0.0000,0.0000,
961,807.58,12382.69,-12382.69,2645.6000,65535.0000,4731.0000,2085.4000,0.0000,0.0000,0.0000,
962,807.96,12376.92,-12376.92,2787.2000,65535.0000,4866.2000,2079.0000,0.0000,0.0000,0.0000,
963,808.33,12371.16,-12371.16,2730.8000,65535.0000,4819.8000,2089.0000,0.0000,0.0000,0.0000,
964,808.71,12365.41,-12365.41,4102.2000,65535.0000,6230.0000,2127.8000,0.0000,0.0000,0.0000,
965,809.08,12359.67,-12359.67,3222.0000,65535.0000,5257.8000,2035.8000,0.0000,0.0000,0.0000,
966,809.46,12353.93,-12353.93,2803.4000,65535.0000,4842.8000,2039.4000,0.0000,0.0000,0.0000,
967,809.83,12348.21,-12348.21,2418.0000,65535.0000,4455.8000,2037.8000,0.0000,0.0000,0.0000,
968,810.21,12342.49,-12342.49,2375.8000,65535.0000,4383.6000,2007.8000,0.0000,0.0000,0.0000,
969,810.58,12336.78,-12336.78,2616.8000,65535.0000,4655.0000,2038.2000,0.0000,0.0000,0.0000,
970,810.96,12331.08,-12331.08,2608.2000,65535.0000,4632.2000,2024.0000,0.0000,0.0000,0.0000,
971,811.33,12325.39,-12325.39,3128.6000,65535.0000,5177.6000,2049.0000,0.0000,0.0000,0.0000,
972,811.71,12319.71,-12319.71,3138.4000,65535.0000,5261.2000,2122.8000,0.0000,0.0000,0.0000,
973,812.08,12314.04,-12314.04,2532.6000,65535.0000,4554.8000,2022.2000,0.0000,0.0000,0.0000,
974,812.46,12308.37,-12308.37,2837.0000,65535.0000,4876.8000,2039.8000,0.0000,0.0000,0.0000,
975,812.83,12302.72,-12302.72,2886.0000,65535.0000,4967.0000,2081.0000,0.0000,0.0000,0.0000,
976,813.20,12297.07,-12297.07,2732.4000,65535.0000,4793.2000,2060.8000,0.0000,0.0000,0.0000,
977,813.58,12291.43,-12291.43,2805.2000,65535.0000,4825.0000,2019.8000,0.0000,0.0000,0.0000,
978,813.95,12285.79,-12285.79,2441.6000,65535.0000,4457.4000,2015.8000,0.0000,0.0000,0.0000,
979,814.32,12280.17,-12280.17,2522.6000,65535.0000,4525.6000,2003.0000,0.0000,0.0000,0.0000,
980,814.69,12274.56,-12274.56,2520.2000,65535.0000,4485.6000,1965.4000,0.0000,0.0000,0.0000,
981,815.07,12268.95,-12268.95,2971.2000,65535.0000,4982.2000,2011.0000,0.0000,0.0000,0.0000,
982,815.44,12263.35,-12263.35,2922.0000,65535.0000,4957.8000,2035.8000,0.0000,0.0000,0.0000,
983,815.81,12257.76,-12257.76,2978.6000,65535.0000,5012.8000,2034.2000,0.0000,0.0000,0.0000,
984,816.18,12252.18,-12252.18,2698.0000,65535.0000,4671.4000,1973.4000,0.0000,0.0000,0.0000,
985,816.55,12246.61,-12246.61,2998.6000,65535.0000,5075.2000,2076.6000,0.0000,0.0000,0.0000,
986,816.92,12241.04,-12241.04,2959.6000,65535.0000,4940.4000,1980.8000,0.0000,0.0000,0.0000,
987,817.29,12235.48,-12235.48,2734.0000,65535.0000,4747.2000,2013.2000,0.0000,0.0000,0.0000,
988,817.67,12229.94,-12229.94,2571.2000,65535.0000,4573.0000,2001.8000,0.0000,0.0000,0.0000,
989,818.04,12224.40,-12224.40,2797.2000,65535.0000,4728.4000,1931.2000,0.0000,0.0000,0.0000,
990,818.41,12218.86,-12218.86,2893.2000,65535.0000,4812.8000,1919.6000,0.0000,0.0000,0.0000,
991,818.78,12213.34,-12213.34,3447.4000,65535.0000,5447.6000,2000.2000,0.0000,0.0000,0.0000,
992,819.15,12207.82,-12207.82,2704.2000,65535.0000,4688.2000,1984.0000,0.0000,0.0000,0.0000,
993,819.52,12202.32,-12202.32,2866.2000,65535.0000,4824.8000,1958.6000,0.0000,0.0000,0.0000,
994,819.89,12196.82,-12196.82,2653.2000,65535.0000,4615.2000,1962.0000,0.0000,0.0000,0.0000,
995,820.26,12191.32,-12191.32,2388.4000,65535.0000,4335.8000,1947.4000,0.0000,0.0000,0.0000,
996,820.62,12185.84,-12185.84,2565.6000,65535.0000,4515.6000,1950.0000,0.0000,0.0000,0.0000,
997,820.99,12180.37,-12180.37,2804.8000,65535.0000,4774.6000,1969.8000,0.0000,0.0000,0.0000,
998,821.36,12174.90,-12174.90,3361.4000,65535.0000,5364.0000,2002.6000,0.0000,0.0000,0.0000,
999,821.73,12169.44,-12169.44,2766.8000,65535.0000,4714.0000,1947.2000,0.0000,0.0000,0.0000,
