File Version;BWSpec4.03_33_C
Date,2026-04-16 15:12:40
title,ZMYE
model,BRC1K
c code,ZMYE
operator,
port1,0
baud1,3
pixel_start,0
pixel_end,999
step,1
units,1
bkcolor,16777215
show_mode,3
data_mode,0
pixel_mode,0
intigration times(ms),8000
average number,5
time_multiply,1
spectrometer_type ,71
yaxis,1
yaxis_min,-494
yaxis_max,65535
xaxis,0
xaxis_min,0
xaxis_max,999
irrands_DispWLMin,100
irrands_DispWLMax,1000
yaxis_min_6,0
yaxis_max_6,0
irradiance_unit,0
Color_Data_Flag,0
Color_StartWL,400
Color_EndWL,700
Color_IncWL,10
power_unit_index,3
photometric_index,0
Illuminant_index,3
observer_index,0
lab_l,0
lab_a,0
lab_b,0
radiometric_flag,0
coefs_a0,348.690626413622
coefs_a1,0.577242842360403
coefs_a2,-0.000102397725884922
coefs_a3,-1.43696470178894E-09
coefs_b0,-604.699216452593
coefs_b1,1.81821494738794
coefs_b2,-0.000542372268672448
coefs_b3,8.54199818797248E-07
coefs_r0,1
coefs_r1,0
coefs_r2,0
coefs_r3,0
coefs_j0,1
coefs_j1,0
coefs_j2,0
coefs_j3,0
enable_coefs_r,0
all_data_save,1
select_option,-1
interval_time,8000
pixel_num,1000
sel_pixel_start,0
sel_pixel_end,968
sel_pixel_delta,1
dark_compensate,0
dark_compensate_value_1,0
dark_compensate_value_2,0
dark_compensate_value_3,0
monitor pixel_0,0
monitor pixel_1,0
monitor pixel_2,0
monitor pixel_3,0
monitor pixel_4,0
monitor pixel_5,0
vertical_select_flag,0
vertical_line3,0
vertical_line4,0
vertical_line3_wv,1
vertical_line4_wv,1
vertical_line_flag,0
vertical_line_ratio,0
laser_wavelength,0
laser_powerlevel,0
overlay_js,0
Relative Intensity Correction Flag,0
Pixel,Wavelength,Wavenumber,Raman Shift,Dark,Reference,Raw data #1,Dark Subtracted #1,%TR #1,Absorbance #1,Irradiance (lumen) #1,
0,348.69,28678.72,-28678.72,2216.8000,65535.0000,2234.0000,17.2000,0.0000,0.0000,0.0000,
1,349.27,28631.33,-28631.33,2236.6000,65535.0000,2255.6000,19.0000,0.0000,0.0000,0.0000,
2,349.84,28584.11,-28584.11,2382.8000,65535.0000,2372.6000,-10.2000,0.0000,0.0000,0.0000,
3,350.42,28537.07,-28537.07,2364.0000,65535.0000,2318.6000,-45.4000,0.0000,0.0000,0.0000,
4,351.00,28490.19,-28490.19,2318.8000,65535.0000,2302.6000,-16.2000,0.0000,0.0000,0.0000,
5,351.57,28443.49,-28443.49,2801.6000,65535.0000,2796.0000,-5.6000,0.0000,0.0000,0.0000,
6,352.15,28396.96,-28396.96,2482.0000,65535.0000,2495.0000,13.0000,0.0000,0.0000,0.0000,
7,352.73,28350.59,-28350.59,3198.4000,65535.0000,3266.4000,68.0000,0.0000,0.0000,0.0000,
8,353.30,28304.40,-28304.40,2601.8000,65535.0000,2613.4000,11.6000,0.0000,0.0000,0.0000,
9,353.88,28258.36,-28258.36,2200.6000,65535.0000,2203.0000,2.4000,0.0000,0.0000,0.0000,
10,354.45,28212.50,-28212.50,2279.6000,65535.0000,2252.0000,-27.6000,0.0000,0.0000,0.0000,
11,355.03,28166.80,-28166.80,2749.4000,65535.0000,2724.6000,-24.8000,0.0000,0.0000,0.0000,
12,355.60,28121.26,-28121.26,2230.4000,65535.0000,2186.4000,-44.0000,0.0000,0.0000,0.0000,
13,356.18,28075.89,-28075.89,2693.8000,65535.0000,2646.2000,-47.6000,0.0000,0.0000,0.0000,
14,356.75,28030.68,-28030.68,2367.8000,65535.0000,2368.0000,0.2000,0.0000,0.0000,0.0000,
15,357.33,27985.63,-27985.63,2369.0000,65535.0000,2340.6000,-28.4000,0.0000,0.0000,0.0000,
16,357.90,27940.74,-27940.74,2361.8000,65535.0000,2356.6000,-5.2000,0.0000,0.0000,0.0000,
17,358.47,27896.01,-27896.01,3010.6000,65535.0000,3016.2000,5.6000,0.0000,0.0000,0.0000,
18,359.05,27851.44,-27851.44,2290.2000,65535.0000,2245.6000,-44.6000,0.0000,0.0000,0.0000,
19,359.62,27807.03,-27807.03,2388.0000,65535.0000,2359.8000,-28.2000,0.0000,0.0000,0.0000,
20,360.19,27762.78,-27762.78,2529.0000,65535.0000,2493.8000,-35.2000,0.0000,0.0000,0.0000,
21,360.77,27718.68,-27718.68,2145.8000,65535.0000,2160.2000,14.4000,0.0000,0.0000,0.0000,
22,361.34,27674.74,-27674.74,2496.8000,65535.0000,2492.6000,-4.2000,0.0000,0.0000,0.0000,
23,361.91,27630.95,-27630.95,2264.8000,65535.0000,2298.0000,33.2000,0.0000,0.0000,0.0000,
24,362.49,27587.31,-27587.31,2552.2000,65535.0000,2554.8000,2.6000,0.0000,0.0000,0.0000,
25,363.06,27543.83,-27543.83,2366.0000,65535.0000,2323.0000,-43.0000,0.0000,0.0000,0.0000,
26,363.63,27500.50,-27500.50,2319.8000,65535.0000,2303.0000,-16.8000,0.0000,0.0000,0.0000,
27,364.20,27457.33,-27457.33,2319.4000,65535.0000,2335.0000,15.6000,0.0000,0.0000,0.0000,
28,364.77,27414.30,-27414.30,2729.0000,65535.0000,2725.4000,-3.6000,0.0000,0.0000,0.0000,
29,365.34,27371.42,-27371.42,1978.4000,65535.0000,1942.4000,-36.0000,0.0000,0.0000,0.0000,
30,365.92,27328.70,-27328.70,2193.2000,65535.0000,2160.4000,-32.8000,0.0000,0.0000,0.0000,
31,366.49,27286.12,-27286.12,2180.6000,65535.0000,2145.4000,-35.2000,0.0000,0.0000,0.0000,
32,367.06,27243.69,-27243.69,2542.6000,65535.0000,2524.0000,-18.6000,0.0000,0.0000,0.0000,
33,367.63,27201.40,-27201.40,2307.6000,65535.0000,2305.4000,-2.2000,0.0000,0.0000,0.0000,
34,368.20,27159.27,-27159.27,2737.0000,65535.0000,2746.6000,9.6000,0.0000,0.0000,0.0000,
35,368.77,27117.27,-27117.27,2682.6000,65535.0000,2665.2000,-17.4000,0.0000,0.0000,0.0000,
36,369.34,27075.43,-27075.43,2153.8000,65535.0000,2095.8000,-58.0000,0.0000,0.0000,0.0000,
37,369.91,27033.72,-27033.72,2323.0000,65535.0000,2313.8000,-9.2000,0.0000,0.0000,0.0000,
38,370.48,26992.16,-26992.16,2451.2000,65535.0000,2499.4000,48.2000,0.0000,0.0000,0.0000,
39,371.05,26950.74,-26950.74,2262.8000,65535.0000,2295.2000,32.4000,0.0000,0.0000,0.0000,
40,371.62,26909.47,-26909.47,2269.4000,65535.0000,2265.2000,-4.2000,0.0000,0.0000,0.0000,
41,372.19,26868.33,-26868.33,2022.2000,65535.0000,2034.8000,12.6000,0.0000,0.0000,0.0000,
42,372.75,26827.34,-26827.34,2136.6000,65535.0000,2105.2000,-31.4000,0.0000,0.0000,0.0000,
43,373.32,26786.48,-26786.48,2177.2000,65535.0000,2184.2000,7.0000,0.0000,0.0000,0.0000,
44,373.89,26745.77,-26745.77,2234.6000,65535.0000,2238.2000,3.6000,0.0000,0.0000,0.0000,
45,374.46,26705.19,-26705.19,2399.4000,65535.0000,2364.0000,-35.4000,0.0000,0.0000,0.0000,
46,375.03,26664.75,-26664.75,2267.2000,65535.0000,2258.4000,-8.8000,0.0000,0.0000,0.0000,
47,375.59,26624.44,-26624.44,2353.8000,65535.0000,2356.0000,2.2000,0.0000,0.0000,0.0000,
48,376.16,26584.28,-26584.28,2222.8000,65535.0000,2233.4000,10.6000,0.0000,0.0000,0.0000,
49,376.73,26544.24,-26544.24,2241.4000,65535.0000,2214.4000,-27.0000,0.0000,0.0000,0.0000,
50,377.30,26504.35,-26504.35,2486.8000,65535.0000,2492.0000,5.2000,0.0000,0.0000,0.0000,
51,377.86,26464.58,-26464.58,2678.6000,65535.0000,2692.4000,13.8000,0.0000,0.0000,0.0000,
52,378.43,26424.95,-26424.95,2812.2000,65535.0000,2823.6000,11.4000,0.0000,0.0000,0.0000,
53,379.00,26385.46,-26385.46,3133.2000,65535.0000,3106.4000,-26.8000,0.0000,0.0000,0.0000,
54,379.56,26346.09,-26346.09,2039.4000,65535.0000,2038.0000,-1.4000,0.0000,0.0000,0.0000,
55,380.13,26306.86,-26306.86,2092.2000,65535.0000,2031.0000,-61.2000,0.0000,0.0000,0.0000,
56,380.69,26267.76,-26267.76,2643.6000,65535.0000,2661.6000,18.0000,0.0000,0.0000,0.0000,
57,381.26,26228.78,-26228.78,2378.0000,65535.0000,2357.4000,-20.6000,0.0000,0.0000,0.0000,
58,381.83,26189.94,-26189.94,2492.0000,65535.0000,2473.6000,-18.4000,0.0000,0.0000,0.0000,
59,382.39,26151.23,-26151.23,2383.2000,65535.0000,2414.0000,30.8000,0.0000,0.0000,0.0000,
60,382.96,26112.64,-26112.64,2530.4000,65535.0000,2523.6000,-6.8000,0.0000,0.0000,0.0000,
61,383.52,26074.19,-26074.19,2259.6000,65535.0000,2242.6000,-17.0000,0.0000,0.0000,0.0000,
62,384.09,26035.85,-26035.85,2444.2000,65535.0000,2482.4000,38.2000,0.0000,0.0000,0.0000,
63,384.65,25997.65,-25997.65,2267.2000,65535.0000,2265.8000,-1.4000,0.0000,0.0000,0.0000,
64,385.21,25959.57,-25959.57,2815.0000,65535.0000,2837.0000,22.0000,0.0000,0.0000,0.0000,
65,385.78,25921.62,-25921.62,2391.4000,65535.0000,2382.8000,-8.6000,0.0000,0.0000,0.0000,
66,386.34,25883.79,-25883.79,2684.0000,65535.0000,2692.6000,8.6000,0.0000,0.0000,0.0000,
67,386.91,25846.08,-25846.08,2331.6000,65535.0000,2347.0000,15.4000,0.0000,0.0000,0.0000,
68,387.47,25808.50,-25808.50,2375.4000,65535.0000,2389.2000,13.8000,0.0000,0.0000,0.0000,
69,388.03,25771.04,-25771.04,2258.6000,65535.0000,2267.6000,9.0000,0.0000,0.0000,0.0000,
70,388.60,25733.71,-25733.71,2107.4000,65535.0000,2080.8000,-26.6000,0.0000,0.0000,0.0000,
71,389.16,25696.49,-25696.49,2580.8000,65535.0000,2643.4000,62.6000,0.0000,0.0000,0.0000,
72,389.72,25659.40,-25659.40,2620.8000,65535.0000,2668.2000,47.4000,0.0000,0.0000,0.0000,
73,390.28,25622.43,-25622.43,3036.2000,65535.0000,3002.0000,-34.2000,0.0000,0.0000,0.0000,
74,390.85,25585.57,-25585.57,2309.0000,65535.0000,2276.0000,-33.0000,0.0000,0.0000,0.0000,
75,391.41,25548.84,-25548.84,2273.2000,65535.0000,2250.2000,-23.0000,0.0000,0.0000,0.0000,
76,391.97,25512.22,-25512.22,2772.8000,65535.0000,2789.4000,16.6000,0.0000,0.0000,0.0000,
77,392.53,25475.72,-25475.72,2482.4000,65535.0000,2490.6000,8.2000,0.0000,0.0000,0.0000,
78,393.09,25439.34,-25439.34,2631.8000,65535.0000,2658.8000,27.0000,0.0000,0.0000,0.0000,
79,393.65,25403.08,-25403.08,2492.4000,65535.0000,2512.4000,20.0000,0.0000,0.0000,0.0000,
80,394.21,25366.93,-25366.93,2858.8000,65535.0000,2904.2000,45.4000,0.0000,0.0000,0.0000,
81,394.77,25330.90,-25330.90,2375.0000,65535.0000,2386.8000,11.8000,0.0000,0.0000,0.0000,
82,395.34,25294.99,-25294.99,2879.8000,65535.0000,2868.2000,-11.6000,0.0000,0.0000,0.0000,
83,395.90,25259.19,-25259.19,3035.4000,65535.0000,3037.4000,2.0000,0.0000,0.0000,0.0000,
84,396.46,25223.50,-25223.50,2376.4000,65535.0000,2363.0000,-13.4000,0.0000,0.0000,0.0000,
85,397.02,25187.93,-25187.93,2408.0000,65535.0000,2395.0000,-13.0000,0.0000,0.0000,0.0000,
86,397.58,25152.47,-25152.47,2758.0000,65535.0000,2776.6000,18.6000,0.0000,0.0000,0.0000,
87,398.13,25117.12,-25117.12,2043.2000,65535.0000,2067.0000,23.8000,0.0000,0.0000,0.0000,
88,398.69,25081.89,-25081.89,2259.6000,65535.0000,2246.4000,-13.2000,0.0000,0.0000,0.0000,
89,399.25,25046.77,-25046.77,2416.8000,65535.0000,2430.6000,13.8000,0.0000,0.0000,0.0000,
90,399.81,25011.75,-25011.75,2664.0000,65535.0000,2661.2000,-2.8000,0.0000,0.0000,0.0000,
91,400.37,24976.85,-24976.85,2501.2000,65535.0000,2503.0000,1.8000,0.0000,0.0000,0.0000,
92,400.93,24942.06,-24942.06,3423.8000,65535.0000,3448.0000,24.2000,0.0000,0.0000,0.0000,
93,401.49,24907.38,-24907.38,2584.2000,65535.0000,2585.6000,1.4000,0.0000,0.0000,0.0000,
94,402.05,24872.81,-24872.81,2637.6000,65535.0000,2703.6000,66.0000,0.0000,0.0000,0.0000,
95,402.60,24838.34,-24838.34,2599.2000,65535.0000,2617.4000,18.2000,0.0000,0.0000,0.0000,
96,403.16,24803.99,-24803.99,2521.4000,65535.0000,2531.6000,10.2000,0.0000,0.0000,0.0000,
97,403.72,24769.74,-24769.74,2445.2000,65535.0000,2425.8000,-19.4000,0.0000,0.0000,0.0000,
98,404.28,24735.60,-24735.60,2579.6000,65535.0000,2587.8000,8.2000,0.0000,0.0000,0.0000,
99,404.83,24701.56,-24701.56,2158.2000,65535.0000,2142.2000,-16.0000,0.0000,0.0000,0.0000,
100,405.39,24667.63,-24667.63,2230.8000,65535.0000,2246.4000,15.6000,0.0000,0.0000,0.0000,
101,405.95,24633.81,-24633.81,2506.4000,65535.0000,2499.4000,-7.0000,0.0000,0.0000,0.0000,
102,406.50,24600.09,-24600.09,2451.8000,65535.0000,2452.6000,0.8000,0.0000,0.0000,0.0000,
103,407.06,24566.48,-24566.48,2535.2000,65535.0000,2529.0000,-6.2000,0.0000,0.0000,0.0000,
104,407.61,24532.97,-24532.97,2530.0000,65535.0000,2558.8000,28.8000,0.0000,0.0000,0.0000,
105,408.17,24499.56,-24499.56,2378.8000,65535.0000,2360.6000,-18.2000,0.0000,0.0000,0.0000,
106,408.73,24466.26,-24466.26,2427.8000,65535.0000,2404.8000,-23.0000,0.0000,0.0000,0.0000,
107,409.28,24433.06,-24433.06,2185.8000,65535.0000,2192.0000,6.2000,0.0000,0.0000,0.0000,
108,409.84,24399.96,-24399.96,2294.8000,65535.0000,2275.6000,-19.2000,0.0000,0.0000,0.0000,
109,410.39,24366.97,-24366.97,2830.0000,65535.0000,2851.0000,21.0000,0.0000,0.0000,0.0000,
110,410.95,24334.07,-24334.07,2784.8000,65535.0000,2833.6000,48.8000,0.0000,0.0000,0.0000,
111,411.50,24301.28,-24301.28,2583.8000,65535.0000,2590.6000,6.8000,0.0000,0.0000,0.0000,
112,412.06,24268.59,-24268.59,2317.2000,65535.0000,2298.0000,-19.2000,0.0000,0.0000,0.0000,
113,412.61,24235.99,-24235.99,2584.2000,65535.0000,2569.8000,-14.4000,0.0000,0.0000,0.0000,
114,413.16,24203.50,-24203.50,2619.6000,65535.0000,2607.2000,-12.4000,0.0000,0.0000,0.0000,
115,413.72,24171.10,-24171.10,2633.6000,65535.0000,2641.4000,7.8000,0.0000,0.0000,0.0000,
116,414.27,24138.81,-24138.81,2129.6000,65535.0000,2122.2000,-7.4000,0.0000,0.0000,0.0000,
117,414.82,24106.61,-24106.61,2364.6000,65535.0000,2338.0000,-26.6000,0.0000,0.0000,0.0000,
118,415.38,24074.51,-24074.51,2973.8000,65535.0000,2983.4000,9.6000,0.0000,0.0000,0.0000,
119,415.93,24042.50,-24042.50,2422.0000,65535.0000,2440.4000,18.4000,0.0000,0.0000,0.0000,
120,416.48,24010.60,-24010.60,2345.4000,65535.0000,2336.0000,-9.4000,0.0000,0.0000,0.0000,
121,417.04,23978.79,-23978.79,2800.2000,65535.0000,2754.4000,-45.8000,0.0000,0.0000,0.0000,
122,417.59,23947.07,-23947.07,2214.8000,65535.0000,2164.2000,-50.6000,0.0000,0.0000,0.0000,
123,418.14,23915.46,-23915.46,2514.2000,65535.0000,2522.6000,8.4000,0.0000,0.0000,0.0000,
124,418.69,23883.93,-23883.93,2658.2000,65535.0000,2671.2000,13.0000,0.0000,0.0000,0.0000,
125,419.24,23852.50,-23852.50,2589.6000,65535.0000,2622.2000,32.6000,0.0000,0.0000,0.0000,
126,419.79,23821.17,-23821.17,2620.6000,65535.0000,2684.8000,64.2000,0.0000,0.0000,0.0000,
127,420.35,23789.93,-23789.93,2603.6000,65535.0000,2566.8000,-36.8000,0.0000,0.0000,0.0000,
128,420.90,23758.78,-23758.78,2011.0000,65535.0000,2003.4000,-7.6000,0.0000,0.0000,0.0000,
129,421.45,23727.73,-23727.73,2402.6000,65535.0000,2414.8000,12.2000,0.0000,0.0000,0.0000,
130,422.00,23696.77,-23696.77,2435.6000,65535.0000,2452.6000,17.0000,0.0000,0.0000,0.0000,
131,422.55,23665.90,-23665.90,2430.0000,65535.0000,2444.2000,14.2000,0.0000,0.0000,0.0000,
132,423.10,23635.12,-23635.12,2460.8000,65535.0000,2460.8000,0.0000,0.0000,0.0000,0.0000,
133,423.65,23604.43,-23604.43,2406.6000,65535.0000,2463.0000,56.4000,0.0000,0.0000,0.0000,
134,424.20,23573.84,-23573.84,2216.6000,65535.0000,2238.6000,22.0000,0.0000,0.0000,0.0000,
135,424.75,23543.33,-23543.33,2966.2000,65535.0000,2956.2000,-10.0000,0.0000,0.0000,0.0000,
136,425.30,23512.92,-23512.92,2483.8000,65535.0000,2525.6000,41.8000,0.0000,0.0000,0.0000,
137,425.85,23482.60,-23482.60,2121.2000,65535.0000,2125.2000,4.0000,0.0000,0.0000,0.0000,
138,426.40,23452.36,-23452.36,2415.0000,65535.0000,2430.8000,15.8000,0.0000,0.0000,0.0000,
139,426.95,23422.22,-23422.22,2685.2000,65535.0000,2736.0000,50.8000,0.0000,0.0000,0.0000,
140,427.49,23392.16,-23392.16,2213.4000,65535.0000,2198.0000,-15.4000,0.0000,0.0000,0.0000,
141,428.04,23362.19,-23362.19,2380.8000,65535.0000,2376.6000,-4.2000,0.0000,0.0000,0.0000,
142,428.59,23332.31,-23332.31,2200.8000,65535.0000,2215.8000,15.0000,0.0000,0.0000,0.0000,
143,429.14,23302.52,-23302.52,2595.2000,65535.0000,2602.0000,6.8000,0.0000,0.0000,0.0000,
144,429.69,23272.81,-23272.81,2726.2000,65535.0000,2750.2000,24.0000,0.0000,0.0000,0.0000,
145,430.23,23243.19,-23243.19,2200.4000,65535.0000,2274.8000,74.4000,0.0000,0.0000,0.0000,
146,430.78,23213.66,-23213.66,2357.0000,65535.0000,2343.8000,-13.2000,0.0000,0.0000,0.0000,
147,431.33,23184.21,-23184.21,2549.2000,65535.0000,2551.4000,2.2000,0.0000,0.0000,0.0000,
148,431.87,23154.85,-23154.85,2628.4000,65535.0000,2628.8000,0.4000,0.0000,0.0000,0.0000,
149,432.42,23125.57,-23125.57,2812.6000,65535.0000,2852.2000,39.6000,0.0000,0.0000,0.0000,
150,432.97,23096.38,-23096.38,2435.2000,65535.0000,2473.2000,38.0000,0.0000,0.0000,0.0000,
151,433.51,23067.28,-23067.28,2377.0000,65535.0000,2385.2000,8.2000,0.0000,0.0000,0.0000,
152,434.06,23038.25,-23038.25,2847.8000,65535.0000,2890.2000,42.4000,0.0000,0.0000,0.0000,
153,434.61,23009.31,-23009.31,2474.0000,65535.0000,2489.6000,15.6000,0.0000,0.0000,0.0000,
154,435.15,22980.46,-22980.46,2599.0000,65535.0000,2662.6000,63.6000,0.0000,0.0000,0.0000,
155,435.70,22951.69,-22951.69,2435.2000,65535.0000,2478.8000,43.6000,0.0000,0.0000,0.0000,
156,436.24,22923.00,-22923.00,2901.8000,65535.0000,2941.0000,39.2000,0.0000,0.0000,0.0000,
157,436.79,22894.39,-22894.39,2844.6000,65535.0000,2907.8000,63.2000,0.0000,0.0000,0.0000,
158,437.33,22865.87,-22865.87,2271.0000,65535.0000,2277.6000,6.6000,0.0000,0.0000,0.0000,
159,437.88,22837.42,-22837.42,2086.4000,65535.0000,2117.2000,30.8000,0.0000,0.0000,0.0000,
160,438.42,22809.06,-22809.06,2339.4000,65535.0000,2312.8000,-26.6000,0.0000,0.0000,0.0000,
161,438.97,22780.78,-22780.78,2810.0000,65535.0000,2794.8000,-15.2000,0.0000,0.0000,0.0000,
162,439.51,22752.58,-22752.58,2626.4000,65535.0000,2628.6000,2.2000,0.0000,0.0000,0.0000,
163,440.05,22724.46,-22724.46,2394.0000,65535.0000,2401.8000,7.8000,0.0000,0.0000,0.0000,
164,440.60,22696.42,-22696.42,2400.8000,65535.0000,2389.4000,-11.4000,0.0000,0.0000,0.0000,
165,441.14,22668.47,-22668.47,2544.6000,65535.0000,2598.8000,54.2000,0.0000,0.0000,0.0000,
166,441.68,22640.59,-22640.59,2663.6000,65535.0000,2684.6000,21.0000,0.0000,0.0000,0.0000,
167,442.23,22612.78,-22612.78,2070.0000,65535.0000,2119.2000,49.2000,0.0000,0.0000,0.0000,
168,442.77,22585.06,-22585.06,2329.0000,65535.0000,2330.2000,1.2000,0.0000,0.0000,0.0000,
169,443.31,22557.42,-22557.42,2179.2000,65535.0000,2221.6000,42.4000,0.0000,0.0000,0.0000,
170,443.86,22529.85,-22529.85,2380.6000,65535.0000,2406.0000,25.4000,0.0000,0.0000,0.0000,
171,444.40,22502.36,-22502.36,2363.8000,65535.0000,2421.8000,58.0000,0.0000,0.0000,0.0000,
172,444.94,22474.95,-22474.95,2711.4000,65535.0000,2746.8000,35.4000,0.0000,0.0000,0.0000,
173,445.48,22447.62,-22447.62,2430.8000,65535.0000,2462.0000,31.2000,0.0000,0.0000,0.0000,
174,446.02,22420.36,-22420.36,2720.0000,65535.0000,2767.0000,47.0000,0.0000,0.0000,0.0000,
175,446.56,22393.18,-22393.18,2934.4000,65535.0000,2962.8000,28.4000,0.0000,0.0000,0.0000,
176,447.11,22366.08,-22366.08,2298.2000,65535.0000,2302.6000,4.4000,0.0000,0.0000,0.0000,
177,447.65,22339.05,-22339.05,2346.2000,65535.0000,2377.2000,31.0000,0.0000,0.0000,0.0000,
178,448.19,22312.10,-22312.10,2232.8000,65535.0000,2224.8000,-8.0000,0.0000,0.0000,0.0000,
179,448.73,22285.22,-22285.22,2726.4000,65535.0000,2756.2000,29.8000,0.0000,0.0000,0.0000,
180,449.27,22258.42,-22258.42,2379.0000,65535.0000,2449.2000,70.2000,0.0000,0.0000,0.0000,
181,449.81,22231.69,-22231.69,2203.6000,65535.0000,2174.2000,-29.4000,0.0000,0.0000,0.0000,
182,450.35,22205.03,-22205.03,2522.2000,65535.0000,2575.2000,53.0000,0.0000,0.0000,0.0000,
183,450.89,22178.45,-22178.45,2490.2000,65535.0000,2531.2000,41.0000,0.0000,0.0000,0.0000,
184,451.43,22151.95,-22151.95,2184.0000,65535.0000,2206.2000,22.2000,0.0000,0.0000,0.0000,
185,451.97,22125.51,-22125.51,2884.2000,65535.0000,2916.2000,32.0000,0.0000,0.0000,0.0000,
186,452.51,22099.15,-22099.15,2513.6000,65535.0000,2559.0000,45.4000,0.0000,0.0000,0.0000,
187,453.04,22072.87,-22072.87,2466.8000,65535.0000,2514.2000,47.4000,0.0000,0.0000,0.0000,
188,453.58,22046.65,-22046.65,2154.0000,65535.0000,2203.2000,49.2000,0.0000,0.0000,0.0000,
189,454.12,22020.51,-22020.51,3054.4000,65535.0000,3047.8000,-6.6000,0.0000,0.0000,0.0000,
190,454.66,21994.44,-21994.44,2389.4000,65535.0000,2397.2000,7.8000,0.0000,0.0000,0.0000,
191,455.20,21968.44,-21968.44,2619.8000,65535.0000,2682.0000,62.2000,0.0000,0.0000,0.0000,
192,455.74,21942.51,-21942.51,2561.8000,65535.0000,2557.0000,-4.8000,0.0000,0.0000,0.0000,
193,456.27,21916.66,-21916.66,2669.2000,65535.0000,2661.8000,-7.4000,0.0000,0.0000,0.0000,
194,456.81,21890.87,-21890.87,3235.2000,65535.0000,3238.6000,3.4000,0.0000,0.0000,0.0000,
195,457.35,21865.16,-21865.16,2484.8000,65535.0000,2530.0000,45.2000,0.0000,0.0000,0.0000,
196,457.89,21839.51,-21839.51,2317.0000,65535.0000,2339.2000,22.2000,0.0000,0.0000,0.0000,
197,458.42,21813.94,-21813.94,3361.0000,65535.0000,3410.6000,49.6000,0.0000,0.0000,0.0000,
198,458.96,21788.43,-21788.43,2704.6000,65535.0000,2729.4000,24.8000,0.0000,0.0000,0.0000,
199,459.50,21763.00,-21763.00,2890.0000,65535.0000,2942.0000,52.0000,0.0000,0.0000,0.0000,
200,460.03,21737.63,-21737.63,2790.6000,65535.0000,2833.0000,42.4000,0.0000,0.0000,0.0000,
201,460.57,21712.33,-21712.33,2453.2000,65535.0000,2527.0000,73.8000,0.0000,0.0000,0.0000,
202,461.10,21687.10,-21687.10,3012.0000,65535.0000,3057.8000,45.8000,0.0000,0.0000,0.0000,
203,461.64,21661.94,-21661.94,2168.6000,65535.0000,2207.6000,39.0000,0.0000,0.0000,0.0000,
204,462.17,21636.85,-21636.85,2133.8000,65535.0000,2147.4000,13.6000,0.0000,0.0000,0.0000,
205,462.71,21611.82,-21611.82,2707.2000,65535.0000,2721.2000,14.0000,0.0000,0.0000,0.0000,
206,463.24,21586.86,-21586.86,2640.0000,65535.0000,2729.2000,89.2000,0.0000,0.0000,0.0000,
207,463.78,21561.97,-21561.97,2953.2000,65535.0000,2982.6000,29.4000,0.0000,0.0000,0.0000,
208,464.31,21537.15,-21537.15,2392.6000,65535.0000,2422.2000,29.6000,0.0000,0.0000,0.0000,
209,464.85,21512.39,-21512.39,2601.2000,65535.0000,2656.4000,55.2000,0.0000,0.0000,0.0000,
210,465.38,21487.70,-21487.70,2301.2000,65535.0000,2370.6000,69.4000,0.0000,0.0000,0.0000,
211,465.92,21463.07,-21463.07,2322.0000,65535.0000,2354.4000,32.4000,0.0000,0.0000,0.0000,
212,466.45,21438.51,-21438.51,3109.8000,65535.0000,3180.2000,70.4000,0.0000,0.0000,0.0000,
213,466.98,21414.02,-21414.02,4134.8000,65535.0000,4220.4000,85.6000,0.0000,0.0000,0.0000,
214,467.52,21389.59,-21389.59,2702.2000,65535.0000,2741.2000,39.0000,0.0000,0.0000,0.0000,
215,468.05,21365.23,-21365.23,2541.2000,65535.0000,2555.6000,14.4000,0.0000,0.0000,0.0000,
216,468.58,21340.93,-21340.93,2226.0000,65535.0000,2253.6000,27.6000,0.0000,0.0000,0.0000,
217,469.12,21316.70,-21316.70,2479.2000,65535.0000,2525.0000,45.8000,0.0000,0.0000,0.0000,
218,469.65,21292.53,-21292.53,2962.2000,65535.0000,2998.6000,36.4000,0.0000,0.0000,0.0000,
219,470.18,21268.42,-21268.42,2552.0000,65535.0000,2596.0000,44.0000,0.0000,0.0000,0.0000,
220,470.71,21244.38,-21244.38,2276.8000,65535.0000,2306.0000,29.2000,0.0000,0.0000,0.0000,
221,471.24,21220.40,-21220.40,2223.8000,65535.0000,2235.8000,12.0000,0.0000,0.0000,0.0000,
222,471.78,21196.49,-21196.49,2322.8000,65535.0000,2338.2000,15.4000,0.0000,0.0000,0.0000,
223,472.31,21172.64,-21172.64,2659.0000,65535.0000,2671.8000,12.8000,0.0000,0.0000,0.0000,
224,472.84,21148.85,-21148.85,2267.8000,65535.0000,2351.0000,83.2000,0.0000,0.0000,0.0000,
225,473.37,21125.12,-21125.12,2737.2000,65535.0000,2815.6000,78.4000,0.0000,0.0000,0.0000,
226,473.90,21101.46,-21101.46,2447.4000,65535.0000,2505.2000,57.8000,0.0000,0.0000,0.0000,
227,474.43,21077.86,-21077.86,2534.0000,65535.0000,2617.2000,83.2000,0.0000,0.0000,0.0000,
228,474.96,21054.32,-21054.32,2574.6000,65535.0000,2633.0000,58.4000,0.0000,0.0000,0.0000,
229,475.49,21030.84,-21030.84,2458.4000,65535.0000,2501.8000,43.4000,0.0000,0.0000,0.0000,
230,476.02,21007.43,-21007.43,2695.4000,65535.0000,2711.8000,16.4000,0.0000,0.0000,0.0000,
231,476.55,20984.07,-20984.07,2251.6000,65535.0000,2292.8000,41.2000,0.0000,0.0000,0.0000,
232,477.08,20960.78,-20960.78,2203.0000,65535.0000,2213.8000,10.8000,0.0000,0.0000,0.0000,
233,477.61,20937.54,-20937.54,2407.8000,65535.0000,2453.4000,45.6000,0.0000,0.0000,0.0000,
234,478.14,20914.37,-20914.37,2426.8000,65535.0000,2490.2000,63.4000,0.0000,0.0000,0.0000,
235,478.67,20891.26,-20891.26,2317.0000,65535.0000,2384.4000,67.4000,0.0000,0.0000,0.0000,
236,479.20,20868.20,-20868.20,2695.0000,65535.0000,2769.0000,74.0000,0.0000,0.0000,0.0000,
237,479.73,20845.21,-20845.21,2332.2000,65535.0000,2389.4000,57.2000,0.0000,0.0000,0.0000,
238,480.25,20822.28,-20822.28,2106.8000,65535.0000,2165.4000,58.6000,0.0000,0.0000,0.0000,
239,480.78,20799.40,-20799.40,2434.6000,65535.0000,2470.4000,35.8000,0.0000,0.0000,0.0000,
240,481.31,20776.59,-20776.59,2659.2000,65535.0000,2699.2000,40.0000,0.0000,0.0000,0.0000,
241,481.84,20753.83,-20753.83,2527.6000,65535.0000,2629.6000,102.0000,0.0000,0.0000,0.0000,
242,482.37,20731.14,-20731.14,2231.2000,65535.0000,2335.0000,103.8000,0.0000,0.0000,0.0000,
243,482.89,20708.50,-20708.50,2574.8000,65535.0000,2656.2000,81.4000,0.0000,0.0000,0.0000,
244,483.42,20685.92,-20685.92,2399.2000,65535.0000,2439.6000,40.4000,0.0000,0.0000,0.0000,
245,483.95,20663.40,-20663.40,2504.2000,65535.0000,2556.8000,52.6000,0.0000,0.0000,0.0000,
246,484.47,20640.93,-20640.93,2698.0000,65535.0000,2780.2000,82.2000,0.0000,0.0000,0.0000,
247,485.00,20618.52,-20618.52,2405.2000,65535.0000,2467.4000,62.2000,0.0000,0.0000,0.0000,
248,485.53,20596.17,-20596.17,2963.4000,65535.0000,3037.0000,73.6000,0.0000,0.0000,0.0000,
249,486.05,20573.88,-20573.88,2817.2000,65535.0000,2911.4000,94.2000,0.0000,0.0000,0.0000,
250,486.58,20551.65,-20551.65,2634.4000,65535.0000,2722.0000,87.6000,0.0000,0.0000,0.0000,
251,487.10,20529.47,-20529.47,2866.6000,65535.0000,2977.4000,110.8000,0.0000,0.0000,0.0000,
252,487.63,20507.35,-20507.35,2223.6000,65535.0000,2366.4000,142.8000,0.0000,0.0000,0.0000,
253,488.16,20485.28,-20485.28,2693.2000,65535.0000,2780.8000,87.6000,0.0000,0.0000,0.0000,
254,488.68,20463.27,-20463.27,2554.6000,65535.0000,2653.2000,98.6000,0.0000,0.0000,0.0000,
255,489.21,20441.32,-20441.32,2840.4000,65535.0000,2941.2000,100.8000,0.0000,0.0000,0.0000,
256,489.73,20419.42,-20419.42,2275.8000,65535.0000,2404.6000,128.8000,0.0000,0.0000,0.0000,
257,490.25,20397.57,-20397.57,2623.4000,65535.0000,2693.2000,69.8000,0.0000,0.0000,0.0000,
258,490.78,20375.79,-20375.79,2910.4000,65535.0000,2999.4000,89.0000,0.0000,0.0000,0.0000,
259,491.30,20354.05,-20354.05,2446.2000,65535.0000,2583.6000,137.4000,0.0000,0.0000,0.0000,
260,491.83,20332.38,-20332.38,2474.0000,65535.0000,2616.6000,142.6000,0.0000,0.0000,0.0000,
261,492.35,20310.75,-20310.75,2196.6000,65535.0000,2301.6000,105.0000,0.0000,0.0000,0.0000,
262,492.87,20289.19,-20289.19,2820.0000,65535.0000,2931.2000,111.2000,0.0000,0.0000,0.0000,
263,493.40,20267.67,-20267.67,3323.2000,65535.0000,3430.6000,107.4000,0.0000,0.0000,0.0000,
264,493.92,20246.21,-20246.21,2528.2000,65535.0000,2606.6000,78.4000,0.0000,0.0000,0.0000,
265,494.44,20224.80,-20224.80,2342.6000,65535.0000,2444.6000,102.0000,0.0000,0.0000,0.0000,
266,494.96,20203.45,-20203.45,2056.2000,65535.0000,2116.6000,60.4000,0.0000,0.0000,0.0000,
267,495.49,20182.15,-20182.15,2263.4000,65535.0000,2372.6000,109.2000,0.0000,0.0000,0.0000,
268,496.01,20160.91,-20160.91,2221.8000,65535.0000,2358.4000,136.6000,0.0000,0.0000,0.0000,
269,496.53,20139.71,-20139.71,2217.4000,65535.0000,2359.0000,141.6000,0.0000,0.0000,0.0000,
270,497.05,20118.57,-20118.57,2828.6000,65535.0000,2971.4000,142.8000,0.0000,0.0000,0.0000,
271,497.57,20097.49,-20097.49,2694.8000,65535.0000,2791.2000,96.4000,0.0000,0.0000,0.0000,
272,498.10,20076.45,-20076.45,2468.8000,65535.0000,2581.6000,112.8000,0.0000,0.0000,0.0000,
273,498.62,20055.47,-20055.47,2637.0000,65535.0000,2779.6000,142.6000,0.0000,0.0000,0.0000,
274,499.14,20034.54,-20034.54,2025.6000,65535.0000,2139.0000,113.4000,0.0000,0.0000,0.0000,
275,499.66,20013.66,-20013.66,3904.2000,65535.0000,4094.0000,189.8000,0.0000,0.0000,0.0000,
276,500.18,19992.83,-19992.83,2674.8000,65535.0000,2799.6000,124.8000,0.0000,0.0000,0.0000,
277,500.70,19972.06,-19972.06,2296.8000,65535.0000,2467.0000,170.2000,0.0000,0.0000,0.0000,
278,501.22,19951.34,-19951.34,2358.6000,65535.0000,2524.4000,165.8000,0.0000,0.0000,0.0000,
279,501.74,19930.66,-19930.66,2421.0000,65535.0000,2574.6000,153.6000,0.0000,0.0000,0.0000,
280,502.26,19910.04,-19910.04,2330.2000,65535.0000,2486.4000,156.2000,0.0000,0.0000,0.0000,
281,502.78,19889.47,-19889.47,2554.6000,65535.0000,2699.6000,145.0000,0.0000,0.0000,0.0000,
282,503.30,19868.95,-19868.95,2529.2000,65535.0000,2673.2000,144.0000,0.0000,0.0000,0.0000,
283,503.82,19848.48,-19848.48,2537.8000,65535.0000,2674.2000,136.4000,0.0000,0.0000,0.0000,
284,504.34,19828.06,-19828.06,2303.4000,65535.0000,2423.4000,120.0000,0.0000,0.0000,0.0000,
285,504.85,19807.69,-19807.69,2253.0000,65535.0000,2371.6000,118.6000,0.0000,0.0000,0.0000,
286,505.37,19787.38,-19787.38,2250.2000,65535.0000,2398.0000,147.8000,0.0000,0.0000,0.0000,
287,505.89,19767.11,-19767.11,2257.2000,65535.0000,2370.4000,113.2000,0.0000,0.0000,0.0000,
288,506.41,19746.89,-19746.89,1970.0000,65535.0000,2089.8000,119.8000,0.0000,0.0000,0.0000,
289,506.93,19726.72,-19726.72,2176.6000,65535.0000,2295.8000,119.2000,0.0000,0.0000,0.0000,
290,507.44,19706.59,-19706.59,2362.2000,65535.0000,2469.0000,106.8000,0.0000,0.0000,0.0000,
291,507.96,19686.52,-19686.52,2048.8000,65535.0000,2150.2000,101.4000,0.0000,0.0000,0.0000,
292,508.48,19666.50,-19666.50,2086.8000,65535.0000,2263.2000,176.4000,0.0000,0.0000,0.0000,
293,509.00,19646.52,-19646.52,2165.0000,65535.0000,2309.8000,144.8000,0.0000,0.0000,0.0000,
294,509.51,19626.60,-19626.60,2296.4000,65535.0000,2437.0000,140.6000,0.0000,0.0000,0.0000,
295,510.03,19606.72,-19606.72,2745.6000,65535.0000,2870.0000,124.4000,0.0000,0.0000,0.0000,
296,510.55,19586.89,-19586.89,2128.4000,65535.0000,2236.8000,108.4000,0.0000,0.0000,0.0000,
297,511.06,19567.11,-19567.11,2661.2000,65535.0000,2835.0000,173.8000,0.0000,0.0000,0.0000,
298,511.58,19547.38,-19547.38,2132.0000,65535.0000,2273.8000,141.8000,0.0000,0.0000,0.0000,
299,512.09,19527.69,-19527.69,2315.6000,65535.0000,2490.0000,174.4000,0.0000,0.0000,0.0000,
300,512.61,19508.05,-19508.05,3067.2000,65535.0000,3239.4000,172.2000,0.0000,0.0000,0.0000,
301,513.12,19488.46,-19488.46,3217.8000,65535.0000,3409.6000,191.8000,0.0000,0.0000,0.0000,
302,513.64,19468.92,-19468.92,2722.0000,65535.0000,2874.4000,152.4000,0.0000,0.0000,0.0000,
303,514.15,19449.42,-19449.42,2302.4000,65535.0000,2442.8000,140.4000,0.0000,0.0000,0.0000,
304,514.67,19429.97,-19429.97,2112.2000,65535.0000,2265.6000,153.4000,0.0000,0.0000,0.0000,
305,515.18,19410.56,-19410.56,2219.4000,65535.0000,2384.0000,164.6000,0.0000,0.0000,0.0000,
306,515.70,19391.21,-19391.21,2398.4000,65535.0000,2570.4000,172.0000,0.0000,0.0000,0.0000,
307,516.21,19371.90,-19371.90,2636.8000,65535.0000,2797.4000,160.6000,0.0000,0.0000,0.0000,
308,516.73,19352.63,-19352.63,2572.0000,65535.0000,2739.6000,167.6000,0.0000,0.0000,0.0000,
309,517.24,19333.41,-19333.41,2049.4000,65535.0000,2182.6000,133.2000,0.0000,0.0000,0.0000,
310,517.75,19314.24,-19314.24,2107.2000,65535.0000,2279.4000,172.2000,0.0000,0.0000,0.0000,
311,518.27,19295.11,-19295.11,3301.8000,65535.0000,3438.8000,137.0000,0.0000,0.0000,0.0000,
312,518.78,19276.03,-19276.03,2165.8000,65535.0000,2329.2000,163.4000,0.0000,0.0000,0.0000,
313,519.29,19257.00,-19257.00,2368.8000,65535.0000,2556.6000,187.8000,0.0000,0.0000,0.0000,
314,519.80,19238.01,-19238.01,2439.2000,65535.0000,2647.4000,208.2000,0.0000,0.0000,0.0000,
315,520.32,19219.06,-19219.06,1937.6000,65535.0000,2113.8000,176.2000,0.0000,0.0000,0.0000,
316,520.83,19200.16,-19200.16,2263.6000,65535.0000,2483.4000,219.8000,0.0000,0.0000,0.0000,
317,521.34,19181.30,-19181.30,2657.6000,65535.0000,2850.2000,192.6000,0.0000,0.0000,0.0000,
318,521.85,19162.49,-19162.49,2289.0000,65535.0000,2481.6000,192.6000,0.0000,0.0000,0.0000,
319,522.36,19143.73,-19143.73,2912.6000,65535.0000,3091.8000,179.2000,0.0000,0.0000,0.0000,
320,522.88,19125.00,-19125.00,2345.0000,65535.0000,2551.6000,206.6000,0.0000,0.0000,0.0000,
321,523.39,19106.33,-19106.33,2510.8000,65535.0000,2736.0000,225.2000,0.0000,0.0000,0.0000,
322,523.90,19087.69,-19087.69,2719.8000,65535.0000,2929.2000,209.4000,0.0000,0.0000,0.0000,
323,524.41,19069.10,-19069.10,2619.8000,65535.0000,2853.0000,233.2000,0.0000,0.0000,0.0000,
324,524.92,19050.55,-19050.55,2408.6000,65535.0000,2548.0000,139.4000,0.0000,0.0000,0.0000,
325,525.43,19032.05,-19032.05,2807.6000,65535.0000,3046.4000,238.8000,0.0000,0.0000,0.0000,
326,525.94,19013.59,-19013.59,2125.2000,65535.0000,2363.6000,238.4000,0.0000,0.0000,0.0000,
327,526.45,18995.17,-18995.17,2284.0000,65535.0000,2517.6000,233.6000,0.0000,0.0000,0.0000,
328,526.96,18976.80,-18976.80,2033.2000,65535.0000,2247.2000,214.0000,0.0000,0.0000,0.0000,
329,527.47,18958.47,-18958.47,2555.8000,65535.0000,2768.4000,212.6000,0.0000,0.0000,0.0000,
330,527.98,18940.18,-18940.18,1985.8000,65535.0000,2224.8000,239.0000,0.0000,0.0000,0.0000,
331,528.49,18921.94,-18921.94,2235.0000,65535.0000,2514.0000,279.0000,0.0000,0.0000,0.0000,
332,529.00,18903.74,-18903.74,2149.0000,65535.0000,2404.2000,255.2000,0.0000,0.0000,0.0000,
333,529.50,18885.58,-18885.58,2177.0000,65535.0000,2371.6000,194.6000,0.0000,0.0000,0.0000,
334,530.01,18867.46,-18867.46,2059.4000,65535.0000,2255.4000,196.0000,0.0000,0.0000,0.0000,
335,530.52,18849.38,-18849.38,2150.8000,65535.0000,2401.6000,250.8000,0.0000,0.0000,0.0000,
336,531.03,18831.35,-18831.35,2406.0000,65535.0000,2638.6000,232.6000,0.0000,0.0000,0.0000,
337,531.54,18813.36,-18813.36,2719.4000,65535.0000,2949.0000,229.6000,0.0000,0.0000,0.0000,
338,532.04,18795.41,-18795.41,2457.8000,65535.0000,2669.4000,211.6000,0.0000,0.0000,0.0000,
339,532.55,18777.50,-18777.50,2218.0000,65535.0000,2459.2000,241.2000,0.0000,0.0000,0.0000,
340,533.06,18759.63,-18759.63,2355.0000,65535.0000,2553.0000,198.0000,0.0000,0.0000,0.0000,
341,533.57,18741.80,-18741.80,2621.0000,65535.0000,2916.6000,295.6000,0.0000,0.0000,0.0000,
342,534.07,18724.02,-18724.02,1978.2000,65535.0000,2258.0000,279.8000,0.0000,0.0000,0.0000,
343,534.58,18706.28,-18706.28,2144.4000,65535.0000,2377.2000,232.8000,0.0000,0.0000,0.0000,
344,535.09,18688.57,-18688.57,2262.0000,65535.0000,2516.4000,254.4000,0.0000,0.0000,0.0000,
345,535.59,18670.91,-18670.91,2786.4000,65535.0000,3039.4000,253.0000,0.0000,0.0000,0.0000,
346,536.10,18653.29,-18653.29,3236.2000,65535.0000,3432.2000,196.0000,0.0000,0.0000,0.0000,
347,536.60,18635.71,-18635.71,2338.6000,65535.0000,2543.8000,205.2000,0.0000,0.0000,0.0000,
348,537.11,18618.17,-18618.17,2045.8000,65535.0000,2225.2000,179.4000,0.0000,0.0000,0.0000,
349,537.62,18600.67,-18600.67,2499.2000,65535.0000,2707.6000,208.4000,0.0000,0.0000,0.0000,
350,538.12,18583.21,-18583.21,2137.0000,65535.0000,2329.2000,192.2000,0.0000,0.0000,0.0000,
351,538.63,18565.78,-18565.78,2079.8000,65535.0000,2289.0000,209.2000,0.0000,0.0000,0.0000,
352,539.13,18548.40,-18548.40,2609.0000,65535.0000,2832.4000,223.4000,0.0000,0.0000,0.0000,
353,539.63,18531.06,-18531.06,2138.2000,65535.0000,2378.4000,240.2000,0.0000,0.0000,0.0000,
354,540.14,18513.76,-18513.76,2213.2000,65535.0000,2471.8000,258.6000,0.0000,0.0000,0.0000,
355,540.64,18496.50,-18496.50,2320.2000,65535.0000,2605.4000,285.2000,0.0000,0.0000,0.0000,
356,541.15,18479.28,-18479.28,2480.4000,65535.0000,2721.2000,240.8000,0.0000,0.0000,0.0000,
357,541.65,18462.09,-18462.09,2135.6000,65535.0000,2407.2000,271.6000,0.0000,0.0000,0.0000,
358,542.15,18444.95,-18444.95,2171.8000,65535.0000,2446.6000,274.8000,0.0000,0.0000,0.0000,
359,542.66,18427.84,-18427.84,2522.2000,65535.0000,2854.4000,332.2000,0.0000,0.0000,0.0000,
360,543.16,18410.77,-18410.77,2066.2000,65535.0000,2334.8000,268.6000,0.0000,0.0000,0.0000,
361,543.66,18393.74,-18393.74,2737.0000,65535.0000,3057.8000,320.8000,0.0000,0.0000,0.0000,
362,544.17,18376.75,-18376.75,2632.6000,65535.0000,2958.6000,326.0000,0.0000,0.0000,0.0000,
363,544.67,18359.80,-18359.80,3095.6000,65535.0000,3381.0000,285.4000,0.0000,0.0000,0.0000,
364,545.17,18342.89,-18342.89,2431.0000,65535.0000,2732.6000,301.6000,0.0000,0.0000,0.0000,
365,545.67,18326.01,-18326.01,2449.2000,65535.0000,2739.6000,290.4000,0.0000,0.0000,0.0000,
366,546.17,18309.17,-18309.17,2499.0000,65535.0000,2796.8000,297.8000,0.0000,0.0000,0.0000,
367,546.68,18292.37,-18292.37,2374.8000,65535.0000,2689.2000,314.4000,0.0000,0.0000,0.0000,
368,547.18,18275.61,-18275.61,3121.4000,65535.0000,3379.0000,257.6000,0.0000,0.0000,0.0000,
369,547.68,18258.89,-18258.89,2367.4000,65535.0000,2657.2000,289.8000,0.0000,0.0000,0.0000,
370,548.18,18242.20,-18242.20,2306.4000,65535.0000,2586.6000,280.2000,0.0000,0.0000,0.0000,
371,548.68,18225.55,-18225.55,2016.4000,65535.0000,2314.0000,297.6000,0.0000,0.0000,0.0000,
372,549.18,18208.94,-18208.94,2653.8000,65535.0000,2919.6000,265.8000,0.0000,0.0000,0.0000,
373,549.68,18192.37,-18192.37,2159.2000,65535.0000,2472.2000,313.0000,0.0000,0.0000,0.0000,
374,550.18,18175.83,-18175.83,2765.2000,65535.0000,3058.8000,293.6000,0.0000,0.0000,0.0000,
375,550.68,18159.33,-18159.33,2260.6000,65535.0000,2580.2000,319.6000,0.0000,0.0000,0.0000,
376,551.18,18142.86,-18142.86,2223.8000,65535.0000,2514.8000,291.0000,0.0000,0.0000,0.0000,
377,551.68,18126.43,-18126.43,2412.4000,65535.0000,2738.6000,326.2000,0.0000,0.0000,0.0000,
378,552.18,18110.04,-18110.04,2654.6000,65535.0000,2977.2000,322.6000,0.0000,0.0000,0.0000,
379,552.68,18093.69,-18093.69,2681.0000,65535.0000,2979.2000,298.2000,0.0000,0.0000,0.0000,
380,553.18,18077.37,-18077.37,2550.4000,65535.0000,2852.0000,301.6000,0.0000,0.0000,0.0000,
381,553.68,18061.09,-18061.09,2279.2000,65535.0000,2612.8000,333.6000,0.0000,0.0000,0.0000,
382,554.18,18044.84,-18044.84,2218.0000,65535.0000,2474.6000,256.6000,0.0000,0.0000,0.0000,
383,554.67,18028.63,-18028.63,2323.4000,65535.0000,2603.4000,280.0000,0.0000,0.0000,0.0000,
384,555.17,18012.46,-18012.46,2372.4000,65535.0000,2678.2000,305.8000,0.0000,0.0000,0.0000,
385,555.67,17996.32,-17996.32,2120.0000,65535.0000,2415.6000,295.6000,0.0000,0.0000,0.0000,
386,556.17,17980.22,-17980.22,2367.4000,65535.0000,2677.0000,309.6000,0.0000,0.0000,0.0000,
387,556.66,17964.15,-17964.15,2500.8000,65535.0000,2862.4000,361.6000,0.0000,0.0000,0.0000,
388,557.16,17948.12,-17948.12,2154.8000,65535.0000,2504.4000,349.6000,0.0000,0.0000,0.0000,
389,557.66,17932.12,-17932.12,2614.0000,65535.0000,2976.2000,362.2000,0.0000,0.0000,0.0000,
390,558.16,17916.16,-17916.16,2026.4000,65535.0000,2366.6000,340.2000,0.0000,0.0000,0.0000,
391,558.65,17900.23,-17900.23,2302.8000,65535.0000,2654.8000,352.0000,0.0000,0.0000,0.0000,
392,559.15,17884.34,-17884.34,2238.8000,65535.0000,2579.6000,340.8000,0.0000,0.0000,0.0000,
393,559.64,17868.48,-17868.48,2136.8000,65535.0000,2464.4000,327.6000,0.0000,0.0000,0.0000,
394,560.14,17852.66,-17852.66,2100.6000,65535.0000,2451.6000,351.0000,0.0000,0.0000,0.0000,
395,560.64,17836.87,-17836.87,2777.6000,65535.0000,3141.0000,363.4000,0.0000,0.0000,0.0000,
396,561.13,17821.12,-17821.12,2390.2000,65535.0000,2744.4000,354.2000,0.0000,0.0000,0.0000,
397,561.63,17805.40,-17805.40,2076.6000,65535.0000,2436.6000,360.0000,0.0000,0.0000,0.0000,
398,562.12,17789.72,-17789.72,2197.8000,65535.0000,2535.0000,337.2000,0.0000,0.0000,0.0000,
399,562.62,17774.07,-17774.07,2607.8000,65535.0000,2947.4000,339.6000,0.0000,0.0000,0.0000,
400,563.11,17758.45,-17758.45,2823.6000,65535.0000,3210.4000,386.8000,0.0000,0.0000,0.0000,
401,563.61,17742.87,-17742.87,2171.8000,65535.0000,2544.0000,372.2000,0.0000,0.0000,0.0000,
402,564.10,17727.32,-17727.32,2076.2000,65535.0000,2465.4000,389.2000,0.0000,0.0000,0.0000,
403,564.60,17711.81,-17711.81,2592.0000,65535.0000,2964.0000,372.0000,0.0000,0.0000,0.0000,
404,565.09,17696.33,-17696.33,2654.4000,65535.0000,3020.2000,365.8000,0.0000,0.0000,0.0000,
405,565.58,17680.88,-17680.88,4010.6000,65535.0000,4425.2000,414.6000,0.0000,0.0000,0.0000,
406,566.08,17665.47,-17665.47,2122.8000,65535.0000,2507.4000,384.6000,0.0000,0.0000,0.0000,
407,566.57,17650.09,-17650.09,2006.6000,65535.0000,2375.6000,369.0000,0.0000,0.0000,0.0000,
408,567.06,17634.74,-17634.74,2301.2000,65535.0000,2651.8000,350.6000,0.0000,0.0000,0.0000,
409,567.56,17619.42,-17619.42,2471.6000,65535.0000,2865.2000,393.6000,0.0000,0.0000,0.0000,
410,568.05,17604.14,-17604.14,2585.6000,65535.0000,2946.6000,361.0000,0.0000,0.0000,0.0000,
411,568.54,17588.90,-17588.90,2657.8000,65535.0000,3043.4000,385.6000,0.0000,0.0000,0.0000,
412,569.03,17573.68,-17573.68,2938.0000,65535.0000,3333.8000,395.8000,0.0000,0.0000,0.0000,
413,569.52,17558.50,-17558.50,2822.2000,65535.0000,3206.4000,384.2000,0.0000,0.0000,0.0000,
414,570.02,17543.35,-17543.35,2408.0000,65535.0000,2784.4000,376.4000,0.0000,0.0000,0.0000,
415,570.51,17528.23,-17528.23,2426.8000,65535.0000,2858.4000,431.6000,0.0000,0.0000,0.0000,
416,571.00,17513.15,-17513.15,2586.4000,65535.0000,3014.2000,427.8000,0.0000,0.0000,0.0000,
417,571.49,17498.09,-17498.09,2310.0000,65535.0000,2686.2000,376.2000,0.0000,0.0000,0.0000,
418,571.98,17483.07,-17483.07,2376.0000,65535.0000,2778.8000,402.8000,0.0000,0.0000,0.0000,
419,572.47,17468.08,-17468.08,2571.4000,65535.0000,2959.8000,388.4000,0.0000,0.0000,0.0000,
420,572.96,17453.13,-17453.13,2215.0000,65535.0000,2639.8000,424.8000,0.0000,0.0000,0.0000,
421,573.45,17438.20,-17438.20,2282.0000,65535.0000,2707.8000,425.8000,0.0000,0.0000,0.0000,
422,573.94,17423.31,-17423.31,2467.4000,65535.0000,2918.8000,451.4000,0.0000,0.0000,0.0000,
423,574.43,17408.45,-17408.45,2598.2000,65535.0000,3014.6000,416.4000,0.0000,0.0000,0.0000,
424,574.92,17393.62,-17393.62,2048.8000,65535.0000,2450.2000,401.4000,0.0000,0.0000,0.0000,
425,575.41,17378.82,-17378.82,2116.2000,65535.0000,2558.2000,442.0000,0.0000,0.0000,0.0000,
426,575.90,17364.06,-17364.06,2295.8000,65535.0000,2755.0000,459.2000,0.0000,0.0000,0.0000,
427,576.39,17349.32,-17349.32,2527.4000,65535.0000,3011.0000,483.6000,0.0000,0.0000,0.0000,
428,576.88,17334.62,-17334.62,2393.6000,65535.0000,2787.4000,393.8000,0.0000,0.0000,0.0000,
429,577.37,17319.95,-17319.95,2788.2000,65535.0000,3260.6000,472.4000,0.0000,0.0000,0.0000,
430,577.86,17305.31,-17305.31,2268.4000,65535.0000,2698.8000,430.4000,0.0000,0.0000,0.0000,
431,578.35,17290.70,-17290.70,2613.2000,65535.0000,3061.0000,447.8000,0.0000,0.0000,0.0000,
432,578.83,17276.12,-17276.12,2048.2000,65535.0000,2511.6000,463.4000,0.0000,0.0000,0.0000,
433,579.32,17261.57,-17261.57,2104.4000,65535.0000,2520.8000,416.4000,0.0000,0.0000,0.0000,
434,579.81,17247.05,-17247.05,2588.8000,65535.0000,3035.6000,446.8000,0.0000,0.0000,0.0000,
435,580.30,17232.56,-17232.56,2259.2000,65535.0000,2678.8000,419.6000,0.0000,0.0000,0.0000,
436,580.78,17218.10,-17218.10,2521.0000,65535.0000,2993.0000,472.0000,0.0000,0.0000,0.0000,
437,581.27,17203.68,-17203.68,2258.8000,65535.0000,2715.6000,456.8000,0.0000,0.0000,0.0000,
438,581.76,17189.28,-17189.28,2255.8000,65535.0000,2714.0000,458.2000,0.0000,0.0000,0.0000,
439,582.24,17174.92,-17174.92,2461.0000,65535.0000,2897.8000,436.8000,0.0000,0.0000,0.0000,
440,582.73,17160.58,-17160.58,2616.6000,65535.0000,3062.8000,446.2000,0.0000,0.0000,0.0000,
441,583.22,17146.27,-17146.27,2543.8000,65535.0000,2998.4000,454.6000,0.0000,0.0000,0.0000,
442,583.70,17132.00,-17132.00,2580.2000,65535.0000,3068.6000,488.4000,0.0000,0.0000,0.0000,
443,584.19,17117.75,-17117.75,2416.0000,65535.0000,2864.8000,448.8000,0.0000,0.0000,0.0000,
444,584.67,17103.54,-17103.54,2300.4000,65535.0000,2700.4000,400.0000,0.0000,0.0000,0.0000,
445,585.16,17089.35,-17089.35,2732.8000,65535.0000,3157.6000,424.8000,0.0000,0.0000,0.0000,
446,585.64,17075.19,-17075.19,2156.8000,65535.0000,2617.0000,460.2000,0.0000,0.0000,0.0000,
447,586.13,17061.07,-17061.07,2242.8000,65535.0000,2730.4000,487.6000,0.0000,0.0000,0.0000,
448,586.61,17046.97,-17046.97,2617.6000,65535.0000,3124.6000,507.0000,0.0000,0.0000,0.0000,
449,587.10,17032.90,-17032.90,2904.4000,65535.0000,3408.6000,504.2000,0.0000,0.0000,0.0000,
450,587.58,17018.86,-17018.86,2193.4000,65535.0000,2720.4000,527.0000,0.0000,0.0000,0.0000,
451,588.07,17004.85,-17004.85,2486.4000,65535.0000,3004.2000,517.8000,0.0000,0.0000,0.0000,
452,588.55,16990.87,-16990.87,2447.8000,65535.0000,2917.2000,469.4000,0.0000,0.0000,0.0000,
453,589.04,16976.92,-16976.92,2299.2000,65535.0000,2820.8000,521.6000,0.0000,0.0000,0.0000,
454,589.52,16962.99,-16962.99,2628.2000,65535.0000,3124.6000,496.4000,0.0000,0.0000,0.0000,
455,590.00,16949.10,-16949.10,2529.2000,65535.0000,3022.2000,493.0000,0.0000,0.0000,0.0000,
456,590.48,16935.23,-16935.23,2396.8000,65535.0000,2923.6000,526.8000,0.0000,0.0000,0.0000,
457,590.97,16921.40,-16921.40,2344.0000,65535.0000,2802.6000,458.6000,0.0000,0.0000,0.0000,
458,591.45,16907.59,-16907.59,2133.8000,65535.0000,2646.0000,512.2000,0.0000,0.0000,0.0000,
459,591.93,16893.81,-16893.81,2382.2000,65535.0000,2901.4000,519.2000,0.0000,0.0000,0.0000,
460,592.42,16880.06,-16880.06,2246.2000,65535.0000,2784.8000,538.6000,0.0000,0.0000,0.0000,
461,592.90,16866.33,-16866.33,2846.8000,65535.0000,3359.0000,512.2000,0.0000,0.0000,0.0000,
462,593.38,16852.64,-16852.64,2243.6000,65535.0000,2781.2000,537.6000,0.0000,0.0000,0.0000,
463,593.86,16838.97,-16838.97,2392.6000,65535.0000,2907.0000,514.4000,0.0000,0.0000,0.0000,
464,594.34,16825.33,-16825.33,2671.0000,65535.0000,3159.2000,488.2000,0.0000,0.0000,0.0000,
465,594.82,16811.72,-16811.72,2660.4000,65535.0000,3224.6000,564.2000,0.0000,0.0000,0.0000,
466,595.30,16798.14,-16798.14,2175.2000,65535.0000,2708.8000,533.6000,0.0000,0.0000,0.0000,
467,595.78,16784.58,-16784.58,2473.4000,65535.0000,3023.2000,549.8000,0.0000,0.0000,0.0000,
468,596.27,16771.05,-16771.05,2561.2000,65535.0000,3125.4000,564.2000,0.0000,0.0000,0.0000,
469,596.75,16757.55,-16757.55,2462.0000,65535.0000,3013.2000,551.2000,0.0000,0.0000,0.0000,
470,597.23,16744.08,-16744.08,2521.2000,65535.0000,3071.2000,550.0000,0.0000,0.0000,0.0000,
471,597.71,16730.64,-16730.64,2556.0000,65535.0000,3110.0000,554.0000,0.0000,0.0000,0.0000,
472,598.19,16717.22,-16717.22,1953.2000,65535.0000,2505.2000,552.0000,0.0000,0.0000,0.0000,
473,598.67,16703.83,-16703.83,2124.4000,65535.0000,2704.6000,580.2000,0.0000,0.0000,0.0000,
474,599.14,16690.47,-16690.47,2258.0000,65535.0000,2865.2000,607.2000,0.0000,0.0000,0.0000,
475,599.62,16677.13,-16677.13,2703.6000,65535.0000,3314.0000,610.4000,0.0000,0.0000,0.0000,
476,600.10,16663.82,-16663.82,2604.0000,65535.0000,3176.2000,572.2000,0.0000,0.0000,0.0000,
477,600.58,16650.54,-16650.54,2277.4000,65535.0000,2849.2000,571.8000,0.0000,0.0000,0.0000,
478,601.06,16637.29,-16637.29,2364.0000,65535.0000,2940.2000,576.2000,0.0000,0.0000,0.0000,
479,601.54,16624.06,-16624.06,2675.8000,65535.0000,3255.0000,579.2000,0.0000,0.0000,0.0000,
480,602.02,16610.86,-16610.86,2538.6000,65535.0000,3166.2000,627.6000,0.0000,0.0000,0.0000,
481,602.49,16597.68,-16597.68,3160.6000,65535.0000,3792.6000,632.0000,0.0000,0.0000,0.0000,
482,602.97,16584.54,-16584.54,2290.6000,65535.0000,2913.0000,622.4000,0.0000,0.0000,0.0000,
483,603.45,16571.42,-16571.42,2313.6000,65535.0000,2903.4000,589.8000,0.0000,0.0000,0.0000,
484,603.93,16558.32,-16558.32,4665.2000,65535.0000,5271.4000,606.2000,0.0000,0.0000,0.0000,
485,604.40,16545.25,-16545.25,2363.6000,65535.0000,2968.4000,604.8000,0.0000,0.0000,0.0000,
486,604.88,16532.21,-16532.21,2478.4000,65535.0000,3047.8000,569.4000,0.0000,0.0000,0.0000,
487,605.36,16519.20,-16519.20,2865.8000,65535.0000,3483.0000,617.2000,0.0000,0.0000,0.0000,
488,605.83,16506.21,-16506.21,2867.4000,65535.0000,3535.8000,668.4000,0.0000,0.0000,0.0000,
489,606.31,16493.24,-16493.24,2430.2000,65535.0000,3042.8000,612.6000,0.0000,0.0000,0.0000,
490,606.78,16480.31,-16480.31,1995.4000,65535.0000,2599.0000,603.6000,0.0000,0.0000,0.0000,
491,607.26,16467.39,-16467.39,2207.2000,65535.0000,2832.4000,625.2000,0.0000,0.0000,0.0000,
492,607.74,16454.51,-16454.51,2188.0000,65535.0000,2807.0000,619.0000,0.0000,0.0000,0.0000,
493,608.21,16441.65,-16441.65,2331.8000,65535.0000,2932.4000,600.6000,0.0000,0.0000,0.0000,
494,608.69,16428.82,-16428.82,2300.8000,65535.0000,2941.8000,641.0000,0.0000,0.0000,0.0000,
495,609.16,16416.01,-16416.01,2283.0000,65535.0000,2951.8000,668.8000,0.0000,0.0000,0.0000,
496,609.64,16403.22,-16403.22,2518.8000,65535.0000,3359.0000,840.2000,0.0000,0.0000,0.0000,
497,610.11,16390.47,-16390.47,2872.8000,65535.0000,3554.0000,681.2000,0.0000,0.0000,0.0000,
498,610.59,16377.73,-16377.73,2311.4000,65535.0000,2933.0000,621.6000,0.0000,0.0000,0.0000,
499,611.06,16365.03,-16365.03,2358.4000,65535.0000,3044.4000,686.0000,0.0000,0.0000,0.0000,
500,611.53,16352.35,-16352.35,2284.4000,65535.0000,2970.4000,686.0000,0.0000,0.0000,0.0000,
501,612.01,16339.69,-16339.69,2563.0000,65535.0000,3248.0000,685.0000,0.0000,0.0000,0.0000,
502,612.48,16327.06,-16327.06,3166.4000,65535.0000,3899.4000,733.0000,0.0000,0.0000,0.0000,
503,612.95,16314.46,-16314.46,2426.6000,65535.0000,3119.0000,692.4000,0.0000,0.0000,0.0000,
504,613.43,16301.87,-16301.87,2857.6000,65535.0000,3592.2000,734.6000,0.0000,0.0000,0.0000,
505,613.90,16289.32,-16289.32,2782.6000,65535.0000,3455.8000,673.2000,0.0000,0.0000,0.0000,
506,614.37,16276.79,-16276.79,2585.8000,65535.0000,3322.4000,736.6000,0.0000,0.0000,0.0000,
507,614.84,16264.28,-16264.28,2882.0000,65535.0000,3563.6000,681.6000,0.0000,0.0000,0.0000,
508,615.32,16251.80,-16251.80,2612.6000,65535.0000,3292.4000,679.8000,0.0000,0.0000,0.0000,
509,615.79,16239.34,-16239.34,2747.0000,65535.0000,3419.2000,672.2000,0.0000,0.0000,0.0000,
510,616.26,16226.91,-16226.91,2179.2000,65535.0000,2904.2000,725.0000,0.0000,0.0000,0.0000,
511,616.73,16214.50,-16214.50,2505.6000,65535.0000,3240.4000,734.8000,0.0000,0.0000,0.0000,
512,617.20,16202.12,-16202.12,2643.0000,65535.0000,3329.0000,686.0000,0.0000,0.0000,0.0000,
513,617.67,16189.76,-16189.76,2152.6000,65535.0000,2864.6000,712.0000,0.0000,0.0000,0.0000,
514,618.15,16177.43,-16177.43,2079.2000,65535.0000,2765.6000,686.4000,0.0000,0.0000,0.0000,
515,618.62,16165.12,-16165.12,2107.8000,65535.0000,2803.0000,695.2000,0.0000,0.0000,0.0000,
516,619.09,16152.83,-16152.83,2202.4000,65535.0000,2886.4000,684.0000,0.0000,0.0000,0.0000,
517,619.56,16140.57,-16140.57,2202.6000,65535.0000,2920.6000,718.0000,0.0000,0.0000,0.0000,
518,620.03,16128.33,-16128.33,2363.6000,65535.0000,3070.8000,707.2000,0.0000,0.0000,0.0000,
519,620.50,16116.12,-16116.12,2199.0000,65535.0000,2884.0000,685.0000,0.0000,0.0000,0.0000,
520,620.97,16103.93,-16103.93,2239.2000,65535.0000,2957.4000,718.2000,0.0000,0.0000,0.0000,
521,621.44,16091.76,-16091.76,2835.0000,65535.0000,3550.6000,715.6000,0.0000,0.0000,0.0000,
522,621.91,16079.62,-16079.62,2140.0000,65535.0000,2822.0000,682.0000,0.0000,0.0000,0.0000,
523,622.37,16067.50,-16067.50,2163.6000,65535.0000,2913.6000,750.0000,0.0000,0.0000,0.0000,
524,622.84,16055.41,-16055.41,2391.2000,65535.0000,3090.2000,699.0000,0.0000,0.0000,0.0000,
525,623.31,16043.33,-16043.33,2460.2000,65535.0000,3265.0000,804.8000,0.0000,0.0000,0.0000,
526,623.78,16031.29,-16031.29,2444.6000,65535.0000,3255.2000,810.6000,0.0000,0.0000,0.0000,
527,624.25,16019.26,-16019.26,2398.8000,65535.0000,3129.4000,730.6000,0.0000,0.0000,0.0000,
528,624.72,16007.26,-16007.26,2347.8000,65535.0000,3125.2000,777.4000,0.0000,0.0000,0.0000,
529,625.18,15995.28,-15995.28,1963.6000,65535.0000,2705.2000,741.6000,0.0000,0.0000,0.0000,
530,625.65,15983.33,-15983.33,2338.8000,65535.0000,3085.0000,746.2000,0.0000,0.0000,0.0000,
531,626.12,15971.40,-15971.40,2185.4000,65535.0000,2898.4000,713.0000,0.0000,0.0000,0.0000,
532,626.59,15959.49,-15959.49,2591.2000,65535.0000,3355.6000,764.4000,0.0000,0.0000,0.0000,
533,627.05,15947.60,-15947.60,2343.6000,65535.0000,3095.4000,751.8000,0.0000,0.0000,0.0000,
534,627.52,15935.74,-15935.74,2786.0000,65535.0000,3533.8000,747.8000,0.0000,0.0000,0.0000,
535,627.99,15923.90,-15923.90,2176.4000,65535.0000,2926.6000,750.2000,0.0000,0.0000,0.0000,
536,628.45,15912.09,-15912.09,2336.8000,65535.0000,3066.8000,730.0000,0.0000,0.0000,0.0000,
537,628.92,15900.29,-15900.29,2248.2000,65535.0000,2966.2000,718.0000,0.0000,0.0000,0.0000,
538,629.39,15888.52,-15888.52,2346.4000,65535.0000,3121.2000,774.8000,0.0000,0.0000,0.0000,
539,629.85,15876.78,-15876.78,2293.2000,65535.0000,3017.8000,724.6000,0.0000,0.0000,0.0000,
540,630.32,15865.05,-15865.05,2805.6000,65535.0000,3576.0000,770.4000,0.0000,0.0000,0.0000,
541,630.78,15853.35,-15853.35,2340.8000,65535.0000,3087.4000,746.6000,0.0000,0.0000,0.0000,
542,631.25,15841.67,-15841.67,2527.8000,65535.0000,3260.6000,732.8000,0.0000,0.0000,0.0000,
543,631.71,15830.01,-15830.01,2111.8000,65535.0000,2865.6000,753.8000,0.0000,0.0000,0.0000,
544,632.18,15818.37,-15818.37,2115.4000,65535.0000,2879.2000,763.8000,0.0000,0.0000,0.0000,
545,632.64,15806.76,-15806.76,2448.0000,65535.0000,3202.6000,754.6000,0.0000,0.0000,0.0000,
546,633.10,15795.17,-15795.17,2500.0000,65535.0000,3251.6000,751.6000,0.0000,0.0000,0.0000,
547,633.57,15783.60,-15783.60,2021.6000,65535.0000,2784.6000,763.0000,0.0000,0.0000,0.0000,
548,634.03,15772.06,-15772.06,2038.6000,65535.0000,2775.4000,736.8000,0.0000,0.0000,0.0000,
549,634.50,15760.53,-15760.53,2168.4000,65535.0000,2886.2000,717.8000,0.0000,0.0000,0.0000,
550,634.96,15749.03,-15749.03,2629.6000,65535.0000,3422.0000,792.4000,0.0000,0.0000,0.0000,
551,635.42,15737.55,-15737.55,1891.0000,65535.0000,2635.0000,744.0000,0.0000,0.0000,0.0000,
552,635.89,15726.09,-15726.09,2416.8000,65535.0000,3117.6000,700.8000,0.0000,0.0000,0.0000,
553,636.35,15714.65,-15714.65,2749.0000,65535.0000,3518.4000,769.4000,0.0000,0.0000,0.0000,
554,636.81,15703.24,-15703.24,2613.6000,65535.0000,3361.8000,748.2000,0.0000,0.0000,0.0000,
555,637.27,15691.85,-15691.85,2337.4000,65535.0000,3117.0000,779.6000,0.0000,0.0000,0.0000,
556,637.74,15680.47,-15680.47,2245.6000,65535.0000,2994.0000,748.4000,0.0000,0.0000,0.0000,
557,638.20,15669.12,-15669.12,2339.2000,65535.0000,3067.0000,727.8000,0.0000,0.0000,0.0000,
558,638.66,15657.80,-15657.80,2172.0000,65535.0000,2944.2000,772.2000,0.0000,0.0000,0.0000,
559,639.12,15646.49,-15646.49,2377.2000,65535.0000,3186.6000,809.4000,0.0000,0.0000,0.0000,
560,639.58,15635.20,-15635.20,2009.4000,65535.0000,2744.0000,734.6000,0.0000,0.0000,0.0000,
561,640.04,15623.94,-15623.94,2396.6000,65535.0000,3166.4000,769.8000,0.0000,0.0000,0.0000,
562,640.50,15612.70,-15612.70,2167.4000,65535.0000,2924.0000,756.6000,0.0000,0.0000,0.0000,
563,640.97,15601.48,-15601.48,2286.6000,65535.0000,3108.4000,821.8000,0.0000,0.0000,0.0000,
564,641.43,15590.28,-15590.28,2044.6000,65535.0000,2808.0000,763.4000,0.0000,0.0000,0.0000,
565,641.89,15579.10,-15579.10,2655.6000,65535.0000,3426.0000,770.4000,0.0000,0.0000,0.0000,
566,642.35,15567.94,-15567.94,2275.2000,65535.0000,3081.6000,806.4000,0.0000,0.0000,0.0000,
567,642.81,15556.80,-15556.80,2481.2000,65535.0000,3286.4000,805.2000,0.0000,0.0000,0.0000,
568,643.27,15545.69,-15545.69,2206.8000,65535.0000,3024.6000,817.8000,0.0000,0.0000,0.0000,
569,643.72,15534.59,-15534.59,2153.4000,65535.0000,2918.0000,764.6000,0.0000,0.0000,0.0000,
570,644.18,15523.52,-15523.52,2404.8000,65535.0000,3233.6000,828.8000,0.0000,0.0000,0.0000,
571,644.64,15512.46,-15512.46,2228.6000,65535.0000,3025.2000,796.6000,0.0000,0.0000,0.0000,
572,645.10,15501.43,-15501.43,2834.0000,65535.0000,3610.8000,776.8000,0.0000,0.0000,0.0000,
573,645.56,15490.42,-15490.42,2984.0000,65535.0000,3793.0000,809.0000,0.0000,0.0000,0.0000,
574,646.02,15479.43,-15479.43,2284.4000,65535.0000,3037.0000,752.6000,0.0000,0.0000,0.0000,
575,646.48,15468.46,-15468.46,2175.4000,65535.0000,2965.8000,790.4000,0.0000,0.0000,0.0000,
576,646.93,15457.51,-15457.51,2317.6000,65535.0000,3068.8000,751.2000,0.0000,0.0000,0.0000,
577,647.39,15446.58,-15446.58,2012.4000,65535.0000,2803.8000,791.4000,0.0000,0.0000,0.0000,
578,647.85,15435.67,-15435.67,1910.2000,65535.0000,2722.8000,812.6000,0.0000,0.0000,0.0000,
579,648.31,15424.78,-15424.78,2218.0000,65535.0000,3027.8000,809.8000,0.0000,0.0000,0.0000,
580,648.76,15413.91,-15413.91,2156.6000,65535.0000,2965.6000,809.0000,0.0000,0.0000,0.0000,
581,649.22,15403.07,-15403.07,2108.2000,65535.0000,2897.2000,789.0000,0.0000,0.0000,0.0000,
582,649.68,15392.24,-15392.24,2319.4000,65535.0000,3109.0000,789.6000,0.0000,0.0000,0.0000,
583,650.13,15381.43,-15381.43,2444.6000,65535.0000,3240.0000,795.4000,0.0000,0.0000,0.0000,
584,650.59,15370.64,-15370.64,2125.8000,65535.0000,2925.4000,799.6000,0.0000,0.0000,0.0000,
585,651.05,15359.88,-15359.88,2414.6000,65535.0000,3209.4000,794.8000,0.0000,0.0000,0.0000,
586,651.50,15349.13,-15349.13,1974.0000,65535.0000,2827.6000,853.6000,0.0000,0.0000,0.0000,
587,651.96,15338.40,-15338.40,2259.6000,65535.0000,3096.2000,836.6000,0.0000,0.0000,0.0000,
588,652.41,15327.69,-15327.69,2234.2000,65535.0000,3078.0000,843.8000,0.0000,0.0000,0.0000,
589,652.87,15317.01,-15317.01,2345.8000,65535.0000,3245.2000,899.4000,0.0000,0.0000,0.0000,
590,653.32,15306.34,-15306.34,2304.0000,65535.0000,3169.0000,865.0000,0.0000,0.0000,0.0000,
591,653.78,15295.69,-15295.69,2389.4000,65535.0000,3193.6000,804.2000,0.0000,0.0000,0.0000,
592,654.23,15285.06,-15285.06,2091.6000,65535.0000,2874.4000,782.8000,0.0000,0.0000,0.0000,
593,654.69,15274.45,-15274.45,2096.8000,65535.0000,2929.6000,832.8000,0.0000,0.0000,0.0000,
594,655.14,15263.86,-15263.86,2356.0000,65535.0000,3192.6000,836.6000,0.0000,0.0000,0.0000,
595,655.60,15253.29,-15253.29,2726.6000,65535.0000,3575.8000,849.2000,0.0000,0.0000,0.0000,
596,656.05,15242.74,-15242.74,2619.8000,65535.0000,3475.2000,855.4000,0.0000,0.0000,0.0000,
597,656.50,15232.21,-15232.21,2501.6000,65535.0000,3310.8000,809.2000,0.0000,0.0000,0.0000,
598,656.96,15221.70,-15221.70,2328.8000,65535.0000,3158.8000,830.0000,0.0000,0.0000,0.0000,
599,657.41,15211.21,-15211.21,2268.8000,65535.0000,3136.2000,867.4000,0.0000,0.0000,0.0000,
600,657.86,15200.74,-15200.74,2156.6000,65535.0000,3034.2000,877.6000,0.0000,0.0000,0.0000,
601,658.32,15190.29,-15190.29,2309.0000,65535.0000,3186.0000,877.0000,0.0000,0.0000,0.0000,
602,658.77,15179.85,-15179.85,2153.8000,65535.0000,3044.4000,890.6000,0.0000,0.0000,0.0000,
603,659.22,15169.44,-15169.44,2635.2000,65535.0000,3566.4000,931.2000,0.0000,0.0000,0.0000,
604,659.67,15159.04,-15159.04,2402.2000,65535.0000,3308.6000,906.4000,0.0000,0.0000,0.0000,
605,660.12,15148.66,-15148.66,2126.2000,65535.0000,3046.2000,920.0000,0.0000,0.0000,0.0000,
606,660.58,15138.31,-15138.31,2462.0000,65535.0000,3356.2000,894.2000,0.0000,0.0000,0.0000,
607,661.03,15127.97,-15127.97,2445.4000,65535.0000,3300.2000,854.8000,0.0000,0.0000,0.0000,
608,661.48,15117.65,-15117.65,2710.8000,65535.0000,3609.2000,898.4000,0.0000,0.0000,0.0000,
609,661.93,15107.35,-15107.35,2098.6000,65535.0000,3029.4000,930.8000,0.0000,0.0000,0.0000,
610,662.38,15097.07,-15097.07,2046.8000,65535.0000,2961.2000,914.4000,0.0000,0.0000,0.0000,
611,662.83,15086.80,-15086.80,2499.2000,65535.0000,3421.2000,922.0000,0.0000,0.0000,0.0000,
612,663.28,15076.56,-15076.56,2210.0000,65535.0000,3121.8000,911.8000,0.0000,0.0000,0.0000,
613,663.73,15066.33,-15066.33,2178.6000,65535.0000,3067.8000,889.2000,0.0000,0.0000,0.0000,
614,664.18,15056.12,-15056.12,2308.0000,65535.0000,3214.0000,906.0000,0.0000,0.0000,0.0000,
615,664.63,15045.93,-15045.93,2020.4000,65535.0000,2912.2000,891.8000,0.0000,0.0000,0.0000,
616,665.08,15035.76,-15035.76,2594.8000,65535.0000,3481.0000,886.2000,0.0000,0.0000,0.0000,
617,665.53,15025.61,-15025.61,2104.4000,65535.0000,2978.0000,873.6000,0.0000,0.0000,0.0000,
618,665.98,15015.48,-15015.48,2094.8000,65535.0000,2972.0000,877.2000,0.0000,0.0000,0.0000,
619,666.43,15005.36,-15005.36,2156.8000,65535.0000,3058.2000,901.4000,0.0000,0.0000,0.0000,
620,666.88,14995.27,-14995.27,2680.6000,65535.0000,3557.0000,876.4000,0.0000,0.0000,0.0000,
621,667.33,14985.19,-14985.19,2360.2000,65535.0000,3238.6000,878.4000,0.0000,0.0000,0.0000,
622,667.77,14975.13,-14975.13,2340.2000,65535.0000,3260.4000,920.2000,0.0000,0.0000,0.0000,
623,668.22,14965.09,-14965.09,2263.0000,65535.0000,3165.4000,902.4000,0.0000,0.0000,0.0000,
624,668.67,14955.06,-14955.06,2100.0000,65535.0000,3045.6000,945.6000,0.0000,0.0000,0.0000,
625,669.12,14945.06,-14945.06,2210.8000,65535.0000,3099.6000,888.8000,0.0000,0.0000,0.0000,
626,669.56,14935.07,-14935.07,2994.6000,65535.0000,3872.8000,878.2000,0.0000,0.0000,0.0000,
627,670.01,14925.10,-14925.10,2130.8000,65535.0000,3030.2000,899.4000,0.0000,0.0000,0.0000,
628,670.46,14915.15,-14915.15,2108.2000,65535.0000,3032.4000,924.2000,0.0000,0.0000,0.0000,
629,670.91,14905.22,-14905.22,2565.0000,65535.0000,3388.0000,823.0000,0.0000,0.0000,0.0000,
630,671.35,14895.30,-14895.30,2292.2000,65535.0000,3209.6000,917.4000,0.0000,0.0000,0.0000,
631,671.80,14885.40,-14885.40,2220.6000,65535.0000,3185.6000,965.0000,0.0000,0.0000,0.0000,
632,672.25,14875.52,-14875.52,2799.0000,65535.0000,3784.8000,985.8000,0.0000,0.0000,0.0000,
633,672.69,14865.66,-14865.66,2235.4000,65535.0000,3106.4000,871.0000,0.0000,0.0000,0.0000,
634,673.14,14855.82,-14855.82,2049.6000,65535.0000,2935.4000,885.8000,0.0000,0.0000,0.0000,
635,673.58,14845.99,-14845.99,2173.4000,65535.0000,3093.6000,920.2000,0.0000,0.0000,0.0000,
636,674.03,14836.18,-14836.18,2187.0000,65535.0000,3113.4000,926.4000,0.0000,0.0000,0.0000,
637,674.47,14826.39,-14826.39,2380.4000,65535.0000,3307.6000,927.2000,0.0000,0.0000,0.0000,
638,674.92,14816.61,-14816.61,2304.0000,65535.0000,3249.8000,945.8000,0.0000,0.0000,0.0000,
639,675.36,14806.86,-14806.86,2244.8000,65535.0000,3237.0000,992.2000,0.0000,0.0000,0.0000,
640,675.81,14797.12,-14797.12,2901.8000,65535.0000,3835.8000,934.0000,0.0000,0.0000,0.0000,
641,676.25,14787.40,-14787.40,2306.4000,65535.0000,3268.6000,962.2000,0.0000,0.0000,0.0000,
642,676.70,14777.69,-14777.69,2347.0000,65535.0000,3236.6000,889.6000,0.0000,0.0000,0.0000,
643,677.14,14768.01,-14768.01,2216.6000,65535.0000,3164.4000,947.8000,0.0000,0.0000,0.0000,
644,677.58,14758.34,-14758.34,2144.0000,65535.0000,3089.4000,945.4000,0.0000,0.0000,0.0000,
645,678.03,14748.68,-14748.68,2387.4000,65535.0000,3316.8000,929.4000,0.0000,0.0000,0.0000,
646,678.47,14739.05,-14739.05,2475.6000,65535.0000,3448.4000,972.8000,0.0000,0.0000,0.0000,
647,678.91,14729.43,-14729.43,2644.4000,65535.0000,3593.4000,949.0000,0.0000,0.0000,0.0000,
648,679.36,14719.83,-14719.83,2072.8000,65535.0000,3022.4000,949.6000,0.0000,0.0000,0.0000,
649,679.80,14710.24,-14710.24,2090.4000,65535.0000,3011.4000,921.0000,0.0000,0.0000,0.0000,
650,680.24,14700.68,-14700.68,2830.6000,65535.0000,3775.8000,945.2000,0.0000,0.0000,0.0000,
651,680.68,14691.13,-14691.13,2149.2000,65535.0000,3106.4000,957.2000,0.0000,0.0000,0.0000,
652,681.12,14681.59,-14681.59,2346.4000,65535.0000,3298.2000,951.8000,0.0000,0.0000,0.0000,
653,681.57,14672.08,-14672.08,2965.0000,65535.0000,3897.0000,932.0000,0.0000,0.0000,0.0000,
654,682.01,14662.58,-14662.58,2133.6000,65535.0000,3090.8000,957.2000,0.0000,0.0000,0.0000,
655,682.45,14653.09,-14653.09,2760.6000,65535.0000,3721.4000,960.8000,0.0000,0.0000,0.0000,
656,682.89,14643.63,-14643.63,2606.6000,65535.0000,3560.6000,954.0000,0.0000,0.0000,0.0000,
657,683.33,14634.18,-14634.18,2108.2000,65535.0000,3054.2000,946.0000,0.0000,0.0000,0.0000,
658,683.77,14624.75,-14624.75,2344.8000,65535.0000,3290.8000,946.0000,0.0000,0.0000,0.0000,
659,684.21,14615.33,-14615.33,2284.8000,65535.0000,3219.2000,934.4000,0.0000,0.0000,0.0000,
660,684.65,14605.93,-14605.93,2594.8000,65535.0000,3575.6000,980.8000,0.0000,0.0000,0.0000,
661,685.09,14596.55,-14596.55,2283.8000,65535.0000,3163.4000,879.6000,0.0000,0.0000,0.0000,
662,685.53,14587.18,-14587.18,2619.0000,65535.0000,3544.8000,925.8000,0.0000,0.0000,0.0000,
663,685.97,14577.83,-14577.83,2321.0000,65535.0000,3256.8000,935.8000,0.0000,0.0000,0.0000,
664,686.41,14568.50,-14568.50,2746.6000,65535.0000,3723.4000,976.8000,0.0000,0.0000,0.0000,
665,686.85,14559.18,-14559.18,2495.4000,65535.0000,3426.4000,931.0000,0.0000,0.0000,0.0000,
666,687.29,14549.88,-14549.88,5441.0000,65535.0000,6492.0000,1051.0000,0.0000,0.0000,0.0000,
667,687.73,14540.60,-14540.60,2680.4000,65535.0000,3576.8000,896.4000,0.0000,0.0000,0.0000,
668,688.17,14531.33,-14531.33,2574.2000,65535.0000,3501.4000,927.2000,0.0000,0.0000,0.0000,
669,688.61,14522.08,-14522.08,2820.2000,65535.0000,3792.0000,971.8000,0.0000,0.0000,0.0000,
670,689.04,14512.84,-14512.84,2748.8000,65535.0000,3666.0000,917.2000,0.0000,0.0000,0.0000,
671,689.48,14503.63,-14503.63,2425.6000,65535.0000,3326.2000,900.6000,0.0000,0.0000,0.0000,
672,689.92,14494.42,-14494.42,3215.2000,65535.0000,4115.8000,900.6000,0.0000,0.0000,0.0000,
673,690.36,14485.24,-14485.24,2310.8000,65535.0000,3216.0000,905.2000,0.0000,0.0000,0.0000,
674,690.80,14476.06,-14476.06,2357.6000,65535.0000,3252.8000,895.2000,0.0000,0.0000,0.0000,
675,691.23,14466.91,-14466.91,2187.0000,65535.0000,3041.8000,854.8000,0.0000,0.0000,0.0000,
676,691.67,14457.77,-14457.77,2404.8000,65535.0000,3316.2000,911.4000,0.0000,0.0000,0.0000,
677,692.11,14448.65,-14448.65,2483.2000,65535.0000,3412.6000,929.4000,0.0000,0.0000,0.0000,
678,692.54,14439.54,-14439.54,2335.4000,65535.0000,3204.8000,869.4000,0.0000,0.0000,0.0000,
679,692.98,14430.45,-14430.45,2617.4000,65535.0000,3518.8000,901.4000,0.0000,0.0000,0.0000,
680,693.42,14421.37,-14421.37,2332.0000,65535.0000,3250.4000,918.4000,0.0000,0.0000,0.0000,
681,693.85,14412.31,-14412.31,2273.0000,65535.0000,3169.2000,896.2000,0.0000,0.0000,0.0000,
682,694.29,14403.27,-14403.27,3073.2000,65535.0000,4014.8000,941.6000,0.0000,0.0000,0.0000,
683,694.72,14394.24,-14394.24,2481.6000,65535.0000,3368.6000,887.0000,0.0000,0.0000,0.0000,
684,695.16,14385.23,-14385.23,2577.8000,65535.0000,3439.4000,861.6000,0.0000,0.0000,0.0000,
685,695.59,14376.23,-14376.23,2455.4000,65535.0000,3366.8000,911.4000,0.0000,0.0000,0.0000,
686,696.03,14367.25,-14367.25,2151.2000,65535.0000,3017.6000,866.4000,0.0000,0.0000,0.0000,
687,696.46,14358.29,-14358.29,2594.6000,65535.0000,3475.8000,881.2000,0.0000,0.0000,0.0000,
688,696.90,14349.34,-14349.34,2037.8000,65535.0000,2970.4000,932.6000,0.0000,0.0000,0.0000,
689,697.33,14340.40,-14340.40,2212.2000,65535.0000,3111.0000,898.8000,0.0000,0.0000,0.0000,
690,697.76,14331.48,-14331.48,2399.2000,65535.0000,3329.0000,929.8000,0.0000,0.0000,0.0000,
691,698.20,14322.58,-14322.58,3262.8000,65535.0000,4186.8000,924.0000,0.0000,0.0000,0.0000,
692,698.63,14313.69,-14313.69,2219.0000,65535.0000,3129.6000,910.6000,0.0000,0.0000,0.0000,
693,699.07,14304.82,-14304.82,3171.2000,65535.0000,4093.8000,922.6000,0.0000,0.0000,0.0000,
694,699.50,14295.96,-14295.96,2850.0000,65535.0000,3769.4000,919.4000,0.0000,0.0000,0.0000,
695,699.93,14287.12,-14287.12,2506.2000,65535.0000,3398.4000,892.2000,0.0000,0.0000,0.0000,
696,700.36,14278.29,-14278.29,2346.6000,65535.0000,3251.8000,905.2000,0.0000,0.0000,0.0000,
697,700.80,14269.48,-14269.48,3119.2000,65535.0000,4022.4000,903.2000,0.0000,0.0000,0.0000,
698,701.23,14260.68,-14260.68,2395.4000,65535.0000,3261.6000,866.2000,0.0000,0.0000,0.0000,
699,701.66,14251.90,-14251.90,2678.2000,65535.0000,3589.2000,911.0000,0.0000,0.0000,0.0000,
700,702.09,14243.13,-14243.13,2921.2000,65535.0000,3832.0000,910.8000,0.0000,0.0000,0.0000,
701,702.52,14234.38,-14234.38,2265.4000,65535.0000,3150.0000,884.6000,0.0000,0.0000,0.0000,
702,702.96,14225.64,-14225.64,2387.8000,65535.0000,3240.2000,852.4000,0.0000,0.0000,0.0000,
703,703.39,14216.92,-14216.92,2344.8000,65535.0000,3194.2000,849.4000,0.0000,0.0000,0.0000,
704,703.82,14208.21,-14208.21,2419.6000,65535.0000,3272.0000,852.4000,0.0000,0.0000,0.0000,
705,704.25,14199.52,-14199.52,2427.8000,65535.0000,3274.6000,846.8000,0.0000,0.0000,0.0000,
706,704.68,14190.84,-14190.84,2441.8000,65535.0000,3342.8000,901.0000,0.0000,0.0000,0.0000,
707,705.11,14182.18,-14182.18,2277.8000,65535.0000,3177.0000,899.2000,0.0000,0.0000,0.0000,
708,705.54,14173.53,-14173.53,2500.4000,65535.0000,3369.8000,869.4000,0.0000,0.0000,0.0000,
709,705.97,14164.90,-14164.90,3135.0000,65535.0000,4011.4000,876.4000,0.0000,0.0000,0.0000,
710,706.40,14156.28,-14156.28,2319.6000,65535.0000,3202.8000,883.2000,0.0000,0.0000,0.0000,
711,706.83,14147.68,-14147.68,2216.8000,65535.0000,3102.6000,885.8000,0.0000,0.0000,0.0000,
712,707.26,14139.09,-14139.09,2175.2000,65535.0000,3004.6000,829.4000,0.0000,0.0000,0.0000,
713,707.69,14130.52,-14130.52,2369.2000,65535.0000,3245.2000,876.0000,0.0000,0.0000,0.0000,
714,708.12,14121.96,-14121.96,2656.4000,65535.0000,3497.0000,840.6000,0.0000,0.0000,0.0000,
715,708.55,14113.42,-14113.42,2197.8000,65535.0000,3067.8000,870.0000,0.0000,0.0000,0.0000,
716,708.97,14104.88,-14104.88,2099.2000,65535.0000,2974.2000,875.0000,0.0000,0.0000,0.0000,
717,709.40,14096.37,-14096.37,2198.6000,65535.0000,3060.6000,862.0000,0.0000,0.0000,0.0000,
718,709.83,14087.87,-14087.87,2378.6000,65535.0000,3308.6000,930.0000,0.0000,0.0000,0.0000,
719,710.26,14079.38,-14079.38,2412.8000,65535.0000,3281.2000,868.4000,0.0000,0.0000,0.0000,
720,710.69,14070.91,-14070.91,3362.4000,65535.0000,4236.0000,873.6000,0.0000,0.0000,0.0000,
721,711.11,14062.45,-14062.45,2460.6000,65535.0000,3343.2000,882.6000,0.0000,0.0000,0.0000,
722,711.54,14054.01,-14054.01,2582.6000,65535.0000,3445.6000,863.0000,0.0000,0.0000,0.0000,
723,711.97,14045.58,-14045.58,2491.2000,65535.0000,3359.4000,868.2000,0.0000,0.0000,0.0000,
724,712.39,14037.16,-14037.16,2289.8000,65535.0000,3142.8000,853.0000,0.0000,0.0000,0.0000,
725,712.82,14028.76,-14028.76,2662.0000,65535.0000,3539.4000,877.4000,0.0000,0.0000,0.0000,
726,713.25,14020.38,-14020.38,3155.2000,65535.0000,4031.4000,876.2000,0.0000,0.0000,0.0000,
727,713.67,14012.00,-14012.00,2380.8000,65535.0000,3257.6000,876.8000,0.0000,0.0000,0.0000,
728,714.10,14003.64,-14003.64,2486.4000,65535.0000,3385.0000,898.6000,0.0000,0.0000,0.0000,
729,714.53,13995.30,-13995.30,2140.2000,65535.0000,3026.2000,886.0000,0.0000,0.0000,0.0000,
730,714.95,13986.97,-13986.97,2245.0000,65535.0000,3111.6000,866.6000,0.0000,0.0000,0.0000,
731,715.38,13978.65,-13978.65,2437.0000,65535.0000,3339.2000,902.2000,0.0000,0.0000,0.0000,
732,715.80,13970.35,-13970.35,2841.8000,65535.0000,3714.4000,872.6000,0.0000,0.0000,0.0000,
733,716.23,13962.06,-13962.06,2345.2000,65535.0000,3196.8000,851.6000,0.0000,0.0000,0.0000,
734,716.65,13953.79,-13953.79,2191.4000,65535.0000,3076.2000,884.8000,0.0000,0.0000,0.0000,
735,717.08,13945.53,-13945.53,2331.2000,65535.0000,3216.4000,885.2000,0.0000,0.0000,0.0000,
736,717.50,13937.28,-13937.28,2460.6000,65535.0000,3280.8000,820.2000,0.0000,0.0000,0.0000,
737,717.92,13929.05,-13929.05,2978.6000,65535.0000,3839.8000,861.2000,0.0000,0.0000,0.0000,
738,718.35,13920.83,-13920.83,2008.4000,65535.0000,2876.2000,867.8000,0.0000,0.0000,0.0000,
739,718.77,13912.63,-13912.63,2123.0000,65535.0000,3011.4000,888.4000,0.0000,0.0000,0.0000,
740,719.20,13904.43,-13904.43,2523.6000,65535.0000,3389.8000,866.2000,0.0000,0.0000,0.0000,
741,719.62,13896.26,-13896.26,2010.0000,65535.0000,2914.2000,904.2000,0.0000,0.0000,0.0000,
742,720.04,13888.09,-13888.09,2209.2000,65535.0000,3105.8000,896.6000,0.0000,0.0000,0.0000,
743,720.46,13879.94,-13879.94,2039.6000,65535.0000,2900.4000,860.8000,0.0000,0.0000,0.0000,
744,720.89,13871.81,-13871.81,2119.2000,65535.0000,3014.6000,895.4000,0.0000,0.0000,0.0000,
745,721.31,13863.68,-13863.68,2399.2000,65535.0000,3253.4000,854.2000,0.0000,0.0000,0.0000,
746,721.73,13855.57,-13855.57,2133.6000,65535.0000,2983.2000,849.6000,0.0000,0.0000,0.0000,
747,722.15,13847.48,-13847.48,2361.0000,65535.0000,3220.4000,859.4000,0.0000,0.0000,0.0000,
748,722.57,13839.39,-13839.39,2623.8000,65535.0000,3575.8000,952.0000,0.0000,0.0000,0.0000,
749,723.00,13831.33,-13831.33,2224.4000,65535.0000,3116.8000,892.4000,0.0000,0.0000,0.0000,
750,723.42,13823.27,-13823.27,2232.0000,65535.0000,3081.2000,849.2000,0.0000,0.0000,0.0000,
751,723.84,13815.23,-13815.23,2548.8000,65535.0000,3402.2000,853.4000,0.0000,0.0000,0.0000,
752,724.26,13807.20,-13807.20,2959.2000,65535.0000,3846.6000,887.4000,0.0000,0.0000,0.0000,
753,724.68,13799.18,-13799.18,2350.8000,65535.0000,3220.0000,869.2000,0.0000,0.0000,0.0000,
754,725.10,13791.18,-13791.18,2280.4000,65535.0000,3171.6000,891.2000,0.0000,0.0000,0.0000,
755,725.52,13783.19,-13783.19,2151.8000,65535.0000,2953.4000,801.6000,0.0000,0.0000,0.0000,
756,725.94,13775.22,-13775.22,2364.0000,65535.0000,3209.0000,845.0000,0.0000,0.0000,0.0000,
757,726.36,13767.26,-13767.26,2556.8000,65535.0000,3448.0000,891.2000,0.0000,0.0000,0.0000,
758,726.78,13759.31,-13759.31,2207.0000,65535.0000,3063.0000,856.0000,0.0000,0.0000,0.0000,
759,727.20,13751.37,-13751.37,2682.0000,65535.0000,3539.2000,857.2000,0.0000,0.0000,0.0000,
760,727.62,13743.45,-13743.45,2213.6000,65535.0000,3036.0000,822.4000,0.0000,0.0000,0.0000,
761,728.04,13735.54,-13735.54,2184.2000,65535.0000,3005.6000,821.4000,0.0000,0.0000,0.0000,
762,728.46,13727.64,-13727.64,2089.6000,65535.0000,2928.0000,838.4000,0.0000,0.0000,0.0000,
763,728.88,13719.76,-13719.76,2529.0000,65535.0000,3396.4000,867.4000,0.0000,0.0000,0.0000,
764,729.29,13711.89,-13711.89,2969.6000,65535.0000,3856.8000,887.2000,0.0000,0.0000,0.0000,
765,729.71,13704.03,-13704.03,2367.8000,65535.0000,3220.4000,852.6000,0.0000,0.0000,0.0000,
766,730.13,13696.19,-13696.19,2353.0000,65535.0000,3185.6000,832.6000,0.0000,0.0000,0.0000,
767,730.55,13688.35,-13688.35,2583.4000,65535.0000,3499.4000,916.0000,0.0000,0.0000,0.0000,
768,730.97,13680.53,-13680.53,2209.8000,65535.0000,3104.4000,894.6000,0.0000,0.0000,0.0000,
769,731.38,13672.73,-13672.73,2496.2000,65535.0000,3339.8000,843.6000,0.0000,0.0000,0.0000,
770,731.80,13664.94,-13664.94,2000.2000,65535.0000,2857.4000,857.2000,0.0000,0.0000,0.0000,
771,732.22,13657.16,-13657.16,2369.2000,65535.0000,3221.6000,852.4000,0.0000,0.0000,0.0000,
772,732.63,13649.39,-13649.39,2571.8000,65535.0000,3399.0000,827.2000,0.0000,0.0000,0.0000,
773,733.05,13641.63,-13641.63,2319.2000,65535.0000,3180.6000,861.4000,0.0000,0.0000,0.0000,
774,733.47,13633.89,-13633.89,2560.6000,65535.0000,3480.4000,919.8000,0.0000,0.0000,0.0000,
775,733.88,13626.16,-13626.16,2259.6000,65535.0000,3164.6000,905.0000,0.0000,0.0000,0.0000,
776,734.30,13618.45,-13618.45,2093.6000,65535.0000,2963.0000,869.4000,0.0000,0.0000,0.0000,
777,734.71,13610.74,-13610.74,2566.8000,65535.0000,3444.6000,877.8000,0.0000,0.0000,0.0000,
778,735.13,13603.05,-13603.05,2329.6000,65535.0000,3192.2000,862.6000,0.0000,0.0000,0.0000,
779,735.54,13595.37,-13595.37,2364.4000,65535.0000,3242.8000,878.4000,0.0000,0.0000,0.0000,
780,735.96,13587.71,-13587.71,2453.0000,65535.0000,3331.8000,878.8000,0.0000,0.0000,0.0000,
781,736.37,13580.05,-13580.05,2125.2000,65535.0000,2976.8000,851.6000,0.0000,0.0000,0.0000,
782,736.79,13572.41,-13572.41,2473.4000,65535.0000,3312.2000,838.8000,0.0000,0.0000,0.0000,
783,737.20,13564.78,-13564.78,2215.8000,65535.0000,3095.6000,879.8000,0.0000,0.0000,0.0000,
784,737.62,13557.17,-13557.17,2560.6000,65535.0000,3388.6000,828.0000,0.0000,0.0000,0.0000,
785,738.03,13549.56,-13549.56,2216.6000,65535.0000,3044.6000,828.0000,0.0000,0.0000,0.0000,
786,738.44,13541.97,-13541.97,2680.4000,65535.0000,3569.0000,888.6000,0.0000,0.0000,0.0000,
787,738.86,13534.39,-13534.39,3370.8000,65535.0000,4317.4000,946.6000,0.0000,0.0000,0.0000,
788,739.27,13526.83,-13526.83,2208.4000,65535.0000,3121.4000,913.0000,0.0000,0.0000,0.0000,
789,739.68,13519.27,-13519.27,2467.8000,65535.0000,3344.0000,876.2000,0.0000,0.0000,0.0000,
790,740.10,13511.73,-13511.73,2304.6000,65535.0000,3173.2000,868.6000,0.0000,0.0000,0.0000,
791,740.51,13504.20,-13504.20,2274.6000,65535.0000,3156.2000,881.6000,0.0000,0.0000,0.0000,
792,740.92,13496.69,-13496.69,2275.6000,65535.0000,3129.2000,853.6000,0.0000,0.0000,0.0000,
793,741.33,13489.18,-13489.18,2994.4000,65535.0000,3905.6000,911.2000,0.0000,0.0000,0.0000,
794,741.75,13481.69,-13481.69,3026.2000,65535.0000,3948.6000,922.4000,0.0000,0.0000,0.0000,
795,742.16,13474.21,-13474.21,2210.6000,65535.0000,3081.8000,871.2000,0.0000,0.0000,0.0000,
796,742.57,13466.74,-13466.74,2229.8000,65535.0000,3137.6000,907.8000,0.0000,0.0000,0.0000,
797,742.98,13459.28,-13459.28,2280.2000,65535.0000,3152.4000,872.2000,0.0000,0.0000,0.0000,
798,743.39,13451.84,-13451.84,2262.8000,65535.0000,3104.2000,841.4000,0.0000,0.0000,0.0000,
799,743.80,13444.40,-13444.40,2788.0000,65535.0000,3658.2000,870.2000,0.0000,0.0000,0.0000,
800,744.21,13436.98,-13436.98,2253.8000,65535.0000,3123.6000,869.8000,0.0000,0.0000,0.0000,
801,744.63,13429.58,-13429.58,2434.2000,65535.0000,3320.4000,886.2000,0.0000,0.0000,0.0000,
802,745.04,13422.18,-13422.18,2629.8000,65535.0000,3491.6000,861.8000,0.0000,0.0000,0.0000,
803,745.45,13414.79,-13414.79,2695.4000,65535.0000,3574.6000,879.2000,0.0000,0.0000,0.0000,
804,745.86,13407.42,-13407.42,2501.4000,65535.0000,3334.4000,833.0000,0.0000,0.0000,0.0000,
805,746.27,13400.06,-13400.06,2433.4000,65535.0000,3270.0000,836.6000,0.0000,0.0000,0.0000,
806,746.67,13392.71,-13392.71,2633.6000,65535.0000,3503.0000,869.4000,0.0000,0.0000,0.0000,
807,747.08,13385.38,-13385.38,2228.4000,65535.0000,3053.0000,824.6000,0.0000,0.0000,0.0000,
808,747.49,13378.05,-13378.05,2552.2000,65535.0000,3395.0000,842.8000,0.0000,0.0000,0.0000,
809,747.90,13370.74,-13370.74,2358.2000,65535.0000,3228.4000,870.2000,0.0000,0.0000,0.0000,
810,748.31,13363.44,-13363.44,3733.6000,65535.0000,4581.2000,847.6000,0.0000,0.0000,0.0000,
811,748.72,13356.15,-13356.15,2361.8000,65535.0000,3198.0000,836.2000,0.0000,0.0000,0.0000,
812,749.13,13348.87,-13348.87,2587.8000,65535.0000,3458.0000,870.2000,0.0000,0.0000,0.0000,
813,749.54,13341.60,-13341.60,2318.2000,65535.0000,3140.4000,822.2000,0.0000,0.0000,0.0000,
814,749.94,13334.35,-13334.35,2562.0000,65535.0000,3405.2000,843.2000,0.0000,0.0000,0.0000,
815,750.35,13327.10,-13327.10,2386.2000,65535.0000,3240.6000,854.4000,0.0000,0.0000,0.0000,
816,750.76,13319.87,-13319.87,3140.4000,65535.0000,3993.0000,852.6000,0.0000,0.0000,0.0000,
817,751.17,13312.65,-13312.65,2462.0000,65535.0000,3284.6000,822.6000,0.0000,0.0000,0.0000,
818,751.57,13305.45,-13305.45,2557.2000,65535.0000,3388.6000,831.4000,0.0000,0.0000,0.0000,
819,751.98,13298.25,-13298.25,2390.8000,65535.0000,3204.8000,814.0000,0.0000,0.0000,0.0000,
820,752.39,13291.06,-13291.06,2350.6000,65535.0000,3200.6000,850.0000,0.0000,0.0000,0.0000,
821,752.79,13283.89,-13283.89,2706.6000,65535.0000,3540.6000,834.0000,0.0000,0.0000,0.0000,
822,753.20,13276.73,-13276.73,2494.4000,65535.0000,3307.6000,813.2000,0.0000,0.0000,0.0000,
823,753.60,13269.58,-13269.58,2759.6000,65535.0000,3662.8000,903.2000,0.0000,0.0000,0.0000,
824,754.01,13262.44,-13262.44,2715.8000,65535.0000,3530.2000,814.4000,0.0000,0.0000,0.0000,
825,754.41,13255.31,-13255.31,2391.0000,65535.0000,3283.0000,892.0000,0.0000,0.0000,0.0000,
826,754.82,13248.19,-13248.19,2568.8000,65535.0000,3449.4000,880.6000,0.0000,0.0000,0.0000,
827,755.22,13241.09,-13241.09,2777.6000,65535.0000,3638.2000,860.6000,0.0000,0.0000,0.0000,
828,755.63,13233.99,-13233.99,2576.8000,65535.0000,3422.2000,845.4000,0.0000,0.0000,0.0000,
829,756.03,13226.91,-13226.91,2314.0000,65535.0000,3129.4000,815.4000,0.0000,0.0000,0.0000,
830,756.44,13219.84,-13219.84,2883.8000,65535.0000,3743.8000,860.0000,0.0000,0.0000,0.0000,
831,756.84,13212.78,-13212.78,2579.8000,65535.0000,3415.2000,835.4000,0.0000,0.0000,0.0000,
832,757.25,13205.73,-13205.73,2545.6000,65535.0000,3352.8000,807.2000,0.0000,0.0000,0.0000,
833,757.65,13198.69,-13198.69,2753.6000,65535.0000,3578.0000,824.4000,0.0000,0.0000,0.0000,
834,758.05,13191.67,-13191.67,2235.2000,65535.0000,3043.2000,808.0000,0.0000,0.0000,0.0000,
835,758.46,13184.65,-13184.65,2415.8000,65535.0000,3233.6000,817.8000,0.0000,0.0000,0.0000,
836,758.86,13177.65,-13177.65,2810.2000,65535.0000,3677.2000,867.0000,0.0000,0.0000,0.0000,
837,759.26,13170.66,-13170.66,2166.8000,65535.0000,2966.0000,799.2000,0.0000,0.0000,0.0000,
838,759.67,13163.67,-13163.67,2409.0000,65535.0000,3238.8000,829.8000,0.0000,0.0000,0.0000,
839,760.07,13156.70,-13156.70,3279.0000,65535.0000,4094.4000,815.4000,0.0000,0.0000,0.0000,
840,760.47,13149.74,-13149.74,2305.0000,65535.0000,3124.8000,819.8000,0.0000,0.0000,0.0000,
841,760.87,13142.80,-13142.80,2233.4000,65535.0000,3054.8000,821.4000,0.0000,0.0000,0.0000,
842,761.28,13135.86,-13135.86,2361.2000,65535.0000,3166.6000,805.4000,0.0000,0.0000,0.0000,
843,761.68,13128.93,-13128.93,2431.2000,65535.0000,3265.6000,834.4000,0.0000,0.0000,0.0000,
844,762.08,13122.02,-13122.02,2658.8000,65535.0000,3441.4000,782.6000,0.0000,0.0000,0.0000,
845,762.48,13115.11,-13115.11,2553.2000,65535.0000,3368.4000,815.2000,0.0000,0.0000,0.0000,
846,762.88,13108.22,-13108.22,2873.6000,65535.0000,3640.2000,766.6000,0.0000,0.0000,0.0000,
847,763.28,13101.33,-13101.33,2735.2000,65535.0000,3549.6000,814.4000,0.0000,0.0000,0.0000,
848,763.68,13094.46,-13094.46,2618.0000,65535.0000,3420.2000,802.2000,0.0000,0.0000,0.0000,
849,764.08,13087.60,-13087.60,2656.4000,65535.0000,3464.8000,808.4000,0.0000,0.0000,0.0000,
850,764.48,13080.75,-13080.75,2978.2000,65535.0000,3817.0000,838.8000,0.0000,0.0000,0.0000,
851,764.88,13073.91,-13073.91,2229.6000,65535.0000,2991.8000,762.2000,0.0000,0.0000,0.0000,
852,765.28,13067.08,-13067.08,2369.2000,65535.0000,3172.8000,803.6000,0.0000,0.0000,0.0000,
853,765.68,13060.26,-13060.26,2356.0000,65535.0000,3133.2000,777.2000,0.0000,0.0000,0.0000,
854,766.08,13053.45,-13053.45,2543.0000,65535.0000,3322.2000,779.2000,0.0000,0.0000,0.0000,
855,766.48,13046.66,-13046.66,2213.4000,65535.0000,2964.6000,751.2000,0.0000,0.0000,0.0000,
856,766.88,13039.87,-13039.87,2780.6000,65535.0000,3600.6000,820.0000,0.0000,0.0000,0.0000,
857,767.28,13033.10,-13033.10,2684.0000,65535.0000,3479.0000,795.0000,0.0000,0.0000,0.0000,
858,767.68,13026.33,-13026.33,2513.6000,65535.0000,3307.4000,793.8000,0.0000,0.0000,0.0000,
859,768.07,13019.58,-13019.58,3560.4000,65535.0000,4389.4000,829.0000,0.0000,0.0000,0.0000,
860,768.47,13012.83,-13012.83,2507.6000,65535.0000,3312.2000,804.6000,0.0000,0.0000,0.0000,
861,768.87,13006.10,-13006.10,2138.2000,65535.0000,2906.6000,768.4000,0.0000,0.0000,0.0000,
862,769.27,12999.38,-12999.38,2374.6000,65535.0000,3125.4000,750.8000,0.0000,0.0000,0.0000,
863,769.66,12992.67,-12992.67,2591.2000,65535.0000,3320.6000,729.4000,0.0000,0.0000,0.0000,
864,770.06,12985.96,-12985.96,2536.2000,65535.0000,3328.4000,792.2000,0.0000,0.0000,0.0000,
865,770.46,12979.27,-12979.27,3030.4000,65535.0000,3768.0000,737.6000,0.0000,0.0000,0.0000,
866,770.86,12972.59,-12972.59,2886.4000,65535.0000,3620.2000,733.8000,0.0000,0.0000,0.0000,
867,771.25,12965.92,-12965.92,2773.6000,65535.0000,3506.6000,733.0000,0.0000,0.0000,0.0000,
868,771.65,12959.26,-12959.26,2320.0000,65535.0000,3039.4000,719.4000,0.0000,0.0000,0.0000,
869,772.04,12952.61,-12952.61,2748.6000,65535.0000,3485.0000,736.4000,0.0000,0.0000,0.0000,
870,772.44,12945.98,-12945.98,2625.0000,65535.0000,3356.6000,731.6000,0.0000,0.0000,0.0000,
871,772.84,12939.35,-12939.35,2441.6000,65535.0000,3218.2000,776.6000,0.0000,0.0000,0.0000,
872,773.23,12932.73,-12932.73,2348.6000,65535.0000,3160.6000,812.0000,0.0000,0.0000,0.0000,
873,773.63,12926.12,-12926.12,2491.6000,65535.0000,3198.6000,707.0000,0.0000,0.0000,0.0000,
874,774.02,12919.52,-12919.52,2318.2000,65535.0000,3053.0000,734.8000,0.0000,0.0000,0.0000,
875,774.42,12912.94,-12912.94,2265.2000,65535.0000,2968.2000,703.0000,0.0000,0.0000,0.0000,
876,774.81,12906.36,-12906.36,2635.6000,65535.0000,3408.8000,773.2000,0.0000,0.0000,0.0000,
877,775.21,12899.79,-12899.79,2497.6000,65535.0000,3202.4000,704.8000,0.0000,0.0000,0.0000,
878,775.60,12893.24,-12893.24,2815.0000,65535.0000,3562.4000,747.4000,0.0000,0.0000,0.0000,
879,775.99,12886.69,-12886.69,2205.0000,65535.0000,2939.2000,734.2000,0.0000,0.0000,0.0000,
880,776.39,12880.15,-12880.15,2550.0000,65535.0000,3286.0000,736.0000,0.0000,0.0000,0.0000,
881,776.78,12873.63,-12873.63,2841.6000,65535.0000,3547.8000,706.2000,0.0000,0.0000,0.0000,
882,777.18,12867.11,-12867.11,2918.2000,65535.0000,3664.6000,746.4000,0.0000,0.0000,0.0000,
883,777.57,12860.61,-12860.61,2484.0000,65535.0000,3182.0000,698.0000,0.0000,0.0000,0.0000,
884,777.96,12854.11,-12854.11,2678.8000,65535.0000,3421.8000,743.0000,0.0000,0.0000,0.0000,
885,778.35,12847.62,-12847.62,2896.0000,65535.0000,3587.4000,691.4000,0.0000,0.0000,0.0000,
886,778.75,12841.15,-12841.15,2963.4000,65535.0000,3695.4000,732.0000,0.0000,0.0000,0.0000,
887,779.14,12834.68,-12834.68,2375.4000,65535.0000,3075.4000,700.0000,0.0000,0.0000,0.0000,
888,779.53,12828.23,-12828.23,2299.6000,65535.0000,3043.2000,743.6000,0.0000,0.0000,0.0000,
889,779.92,12821.78,-12821.78,2264.0000,65535.0000,2995.2000,731.2000,0.0000,0.0000,0.0000,
890,780.31,12815.35,-12815.35,2474.0000,65535.0000,3191.0000,717.0000,0.0000,0.0000,0.0000,
891,780.71,12808.92,-12808.92,2325.2000,65535.0000,3041.8000,716.6000,0.0000,0.0000,0.0000,
892,781.10,12802.50,-12802.50,2239.6000,65535.0000,2939.8000,700.2000,0.0000,0.0000,0.0000,
893,781.49,12796.10,-12796.10,2356.2000,65535.0000,3009.4000,653.2000,0.0000,0.0000,0.0000,
894,781.88,12789.70,-12789.70,2565.2000,65535.0000,3259.6000,694.4000,0.0000,0.0000,0.0000,
895,782.27,12783.32,-12783.32,2616.0000,65535.0000,3283.0000,667.0000,0.0000,0.0000,0.0000,
896,782.66,12776.94,-12776.94,3022.4000,65535.0000,3669.6000,647.2000,0.0000,0.0000,0.0000,
897,783.05,12770.57,-12770.57,2778.4000,65535.0000,3498.0000,719.6000,0.0000,0.0000,0.0000,
898,783.44,12764.22,-12764.22,3530.8000,65535.0000,4183.8000,653.0000,0.0000,0.0000,0.0000,
899,783.83,12757.87,-12757.87,2416.2000,65535.0000,3084.2000,668.0000,0.0000,0.0000,0.0000,
900,784.22,12751.53,-12751.53,2463.2000,65535.0000,3153.4000,690.2000,0.0000,0.0000,0.0000,
901,784.61,12745.20,-12745.20,2414.2000,65535.0000,3024.8000,610.6000,0.0000,0.0000,0.0000,
902,785.00,12738.89,-12738.89,2296.4000,65535.0000,2983.0000,686.6000,0.0000,0.0000,0.0000,
903,785.39,12732.58,-12732.58,2303.8000,65535.0000,2944.4000,640.6000,0.0000,0.0000,0.0000,
904,785.78,12726.28,-12726.28,2473.4000,65535.0000,3128.6000,655.2000,0.0000,0.0000,0.0000,
905,786.16,12719.99,-12719.99,2263.0000,65535.0000,2962.2000,699.2000,0.0000,0.0000,0.0000,
906,786.55,12713.71,-12713.71,2597.0000,65535.0000,3240.4000,643.4000,0.0000,0.0000,0.0000,
907,786.94,12707.44,-12707.44,2533.8000,65535.0000,3196.2000,662.4000,0.0000,0.0000,0.0000,
908,787.33,12701.18,-12701.18,2625.2000,65535.0000,3301.6000,676.4000,0.0000,0.0000,0.0000,
909,787.72,12694.93,-12694.93,2458.8000,65535.0000,3151.8000,693.0000,0.0000,0.0000,0.0000,
910,788.10,12688.69,-12688.69,2386.6000,65535.0000,3059.8000,673.2000,0.0000,0.0000,0.0000,
911,788.49,12682.46,-12682.46,2530.6000,65535.0000,3210.6000,680.0000,0.0000,0.0000,0.0000,
912,788.88,12676.24,-12676.24,2255.2000,65535.0000,2909.4000,654.2000,0.0000,0.0000,0.0000,
913,789.26,12670.03,-12670.03,2447.6000,65535.0000,3146.6000,699.0000,0.0000,0.0000,0.0000,
914,789.65,12663.83,-12663.83,2661.4000,65535.0000,3312.8000,651.4000,0.0000,0.0000,0.0000,
915,790.04,12657.63,-12657.63,2474.6000,65535.0000,3076.4000,601.8000,0.0000,0.0000,0.0000,
916,790.42,12651.45,-12651.45,2546.4000,65535.0000,3185.0000,638.6000,0.0000,0.0000,0.0000,
917,790.81,12645.28,-12645.28,2282.4000,65535.0000,2921.0000,638.6000,0.0000,0.0000,0.0000,
918,791.19,12639.11,-12639.11,3208.2000,65535.0000,3848.2000,640.0000,0.0000,0.0000,0.0000,
919,791.58,12632.96,-12632.96,2454.2000,65535.0000,3176.2000,722.0000,0.0000,0.0000,0.0000,
920,791.97,12626.81,-12626.81,2343.6000,65535.0000,3031.6000,688.0000,0.0000,0.0000,0.0000,
921,792.35,12620.67,-12620.67,2282.4000,65535.0000,2929.6000,647.2000,0.0000,0.0000,0.0000,
922,792.74,12614.55,-12614.55,2564.0000,65535.0000,3147.8000,583.8000,0.0000,0.0000,0.0000,
923,793.12,12608.43,-12608.43,2515.4000,65535.0000,3137.4000,622.0000,0.0000,0.0000,0.0000,
924,793.50,12602.32,-12602.32,2656.8000,65535.0000,3261.0000,604.2000,0.0000,0.0000,0.0000,
925,793.89,12596.22,-12596.22,2470.6000,65535.0000,3109.2000,638.6000,0.0000,0.0000,0.0000,
926,794.27,12590.13,-12590.13,2839.4000,65535.0000,3501.2000,661.8000,0.0000,0.0000,0.0000,
927,794.66,12584.05,-12584.05,2778.0000,65535.0000,3470.6000,692.6000,0.0000,0.0000,0.0000,
928,795.04,12577.98,-12577.98,3022.2000,65535.0000,3655.4000,633.2000,0.0000,0.0000,0.0000,
929,795.42,12571.92,-12571.92,2509.8000,65535.0000,3132.6000,622.8000,0.0000,0.0000,0.0000,
930,795.81,12565.86,-12565.86,2708.4000,65535.0000,3294.6000,586.2000,0.0000,0.0000,0.0000,
931,796.19,12559.82,-12559.82,2490.4000,65535.0000,3153.4000,663.0000,0.0000,0.0000,0.0000,
932,796.57,12553.78,-12553.78,2713.2000,65535.0000,3361.2000,648.0000,0.0000,0.0000,0.0000,
933,796.96,12547.76,-12547.76,2841.6000,65535.0000,3477.6000,636.0000,0.0000,0.0000,0.0000,
934,797.34,12541.74,-12541.74,2432.6000,65535.0000,3097.2000,664.6000,0.0000,0.0000,0.0000,
935,797.72,12535.74,-12535.74,2255.6000,65535.0000,2896.0000,640.4000,0.0000,0.0000,0.0000,
936,798.10,12529.74,-12529.74,2670.6000,65535.0000,3297.6000,627.0000,0.0000,0.0000,0.0000,
937,798.48,12523.75,-12523.75,2975.8000,65535.0000,3637.8000,662.0000,0.0000,0.0000,0.0000,
938,798.86,12517.77,-12517.77,2598.6000,65535.0000,3240.2000,641.6000,0.0000,0.0000,0.0000,
939,799.25,12511.80,-12511.80,2814.0000,65535.0000,3407.2000,593.2000,0.0000,0.0000,0.0000,
940,799.63,12505.83,-12505.83,2585.4000,65535.0000,3172.0000,586.6000,0.0000,0.0000,0.0000,
941,800.01,12499.88,-12499.88,2961.8000,65535.0000,3547.2000,585.4000,0.0000,0.0000,0.0000,
942,800.39,12493.94,-12493.94,2433.2000,65535.0000,3056.2000,623.0000,0.0000,0.0000,0.0000,
943,800.77,12488.00,-12488.00,2849.8000,65535.0000,3486.4000,636.6000,0.0000,0.0000,0.0000,
944,801.15,12482.08,-12482.08,3591.2000,65535.0000,4153.4000,562.2000,0.0000,0.0000,0.0000,
945,801.53,12476.16,-12476.16,2618.0000,65535.0000,3200.6000,582.6000,0.0000,0.0000,0.0000,
946,801.91,12470.25,-12470.25,2692.2000,65535.0000,3246.6000,554.4000,0.0000,0.0000,0.0000,
947,802.29,12464.35,-12464.35,3104.0000,65535.0000,3712.4000,608.4000,0.0000,0.0000,0.0000,
948,802.67,12458.46,-12458.46,2897.8000,65535.0000,3513.2000,615.4000,0.0000,0.0000,0.0000,
949,803.05,12452.58,-12452.58,2768.6000,65535.0000,3338.6000,570.0000,0.0000,0.0000,0.0000,
950,803.43,12446.71,-12446.71,2835.4000,65535.0000,3426.2000,590.8000,0.0000,0.0000,0.0000,
951,803.80,12440.84,-12440.84,3215.4000,65535.0000,3812.0000,596.6000,0.0000,0.0000,0.0000,
952,804.18,12434.99,-12434.99,2400.0000,65535.0000,2978.2000,578.2000,0.0000,0.0000,0.0000,
953,804.56,12429.14,-12429.14,2646.2000,65535.0000,3233.0000,586.8000,0.0000,0.0000,0.0000,
954,804.94,12423.30,-12423.30,3074.4000,65535.0000,3715.6000,641.2000,0.0000,0.0000,0.0000,
955,805.32,12417.48,-12417.48,2629.2000,65535.0000,3202.2000,573.0000,0.0000,0.0000,0.0000,
956,805.69,12411.66,-12411.66,2743.4000,65535.0000,3279.4000,536.0000,0.0000,0.0000,0.0000,
957,806.07,12405.84,-12405.84,2877.0000,65535.0000,3478.6000,601.6000,0.0000,0.0000,0.0000,
958,806.45,12400.04,-12400.04,2666.6000,65535.0000,3251.6000,585.0000,0.0000,0.0000,0.0000,
959,806.83,12394.25,-12394.25,3614.2000,65535.0000,4256.2000,642.0000,0.0000,0.0000,0.0000,
960,807.20,12388.46,-12388.46,2568.0000,65535.0000,3182.0000,614.0000,0.0000,0.0000,0.0000,
961,807.58,12382.69,-12382.69,2643.4000,65535.0000,3207.2000,563.8000,0.0000,0.0000,0.0000,
962,807.96,12376.92,-12376.92,2734.4000,65535.0000,3351.0000,616.6000,0.0000,0.0000,0.0000,
963,808.33,12371.16,-12371.16,2699.0000,65535.0000,3274.8000,575.8000,0.0000,0.0000,0.0000,
964,808.71,12365.41,-12365.41,4087.0000,65535.0000,4692.4000,605.4000,0.0000,0.0000,0.0000,
965,809.08,12359.67,-12359.67,3162.8000,65535.0000,3746.4000,583.6000,0.0000,0.0000,0.0000,
966,809.46,12353.93,-12353.93,2784.6000,65535.0000,3359.0000,574.4000,0.0000,0.0000,0.0000,
967,809.83,12348.21,-12348.21,2375.6000,65535.0000,2970.2000,594.6000,0.0000,0.0000,0.0000,
968,810.21,12342.49,-12342.49,2378.8000,65535.0000,2921.2000,542.4000,0.0000,0.0000,0.0000,
969,810.58,12336.78,-12336.78,2576.4000,65535.0000,3151.6000,575.2000,0.0000,0.0000,0.0000,
970,810.96,12331.08,-12331.08,2593.0000,65535.0000,3178.2000,585.2000,0.0000,0.0000,0.0000,
971,811.33,12325.39,-12325.39,3064.0000,65535.0000,3676.2000,612.2000,0.0000,0.0000,0.0000,
972,811.71,12319.71,-12319.71,3135.4000,65535.0000,3698.8000,563.4000,0.0000,0.0000,0.0000,
973,812.08,12314.04,-12314.04,2547.0000,65535.0000,3089.8000,542.8000,0.0000,0.0000,0.0000,
974,812.46,12308.37,-12308.37,2774.8000,65535.0000,3309.8000,535.0000,0.0000,0.0000,0.0000,
975,812.83,12302.72,-12302.72,2915.0000,65535.0000,3458.0000,543.0000,0.0000,0.0000,0.0000,
976,813.20,12297.07,-12297.07,2697.8000,65535.0000,3235.4000,537.6000,0.0000,0.0000,0.0000,
977,813.58,12291.43,-12291.43,2749.4000,65535.0000,3320.4000,571.0000,0.0000,0.0000,0.0000,
978,813.95,12285.79,-12285.79,2446.0000,65535.0000,3009.8000,563.8000,0.0000,0.0000,0.0000,
979,814.32,12280.17,-12280.17,2487.2000,65535.0000,3031.2000,544.0000,0.0000,0.0000,0.0000,
980,814.69,12274.56,-12274.56,2462.2000,65535.0000,3021.6000,559.4000,0.0000,0.0000,0.0000,
981,815.07,12268.95,-12268.95,2951.8000,65535.0000,3514.4000,562.6000,0.0000,0.0000,0.0000,
982,815.44,12263.35,-12263.35,3052.8000,65535.0000,3631.0000,578.2000,0.0000,0.0000,0.0000,
983,815.81,12257.76,-12257.76,3618.8000,65535.0000,4210.4000,591.6000,0.0000,0.0000,0.0000,
984,816.18,12252.18,-12252.18,2697.2000,65535.0000,3207.8000,510.6000,0.0000,0.0000,0.0000,
985,816.55,12246.61,-12246.61,2998.2000,65535.0000,3554.8000,556.6000,0.0000,0.0000,0.0000,
986,816.92,12241.04,-12241.04,2913.0000,65535.0000,3465.0000,552.0000,0.0000,0.0000,0.0000,
987,817.29,12235.48,-12235.48,2696.0000,65535.0000,3293.6000,597.6000,0.0000,0.0000,0.0000,
988,817.67,12229.94,-12229.94,2581.0000,65535.0000,3149.0000,568.0000,0.0000,0.0000,0.0000,
989,818.04,12224.40,-12224.40,2774.6000,65535.0000,3260.4000,485.8000,0.0000,0.0000,0.0000,
990,818.41,12218.86,-12218.86,2860.4000,65535.0000,3429.0000,568.6000,0.0000,0.0000,0.0000,
991,818.78,12213.34,-12213.34,3448.8000,65535.0000,3979.4000,530.6000,0.0000,0.0000,0.0000,
992,819.15,12207.82,-12207.82,2646.0000,65535.0000,3184.0000,538.0000,0.0000,0.0000,0.0000,
993,819.52,12202.32,-12202.32,2839.4000,65535.0000,3392.0000,552.6000,0.0000,0.0000,0.0000,
994,819.89,12196.82,-12196.82,2644.0000,65535.0000,3233.0000,589.0000,0.0000,0.0000,0.0000,
995,820.26,12191.32,-12191.32,2353.4000,65535.0000,2951.0000,597.6000,0.0000,0.0000,0.0000,
996,820.62,12185.84,-12185.84,2533.2000,65535.0000,3060.8000,527.6000,0.0000,0.0000,0.0000,
997,820.99,12180.37,-12180.37,2781.8000,65535.0000,3337.8000,556.0000,0.0000,0.0000,0.0000,
998,821.36,12174.90,-12174.90,3366.6000,65535.0000,3879.6000,513.0000,0.0000,0.0000,0.0000,
999,821.73,12169.44,-12169.44,2759.2000,65535.0000,3264.2000,505.0000,0.0000,0.0000,0.0000,
